time (s)	magX	magY	magZ
10476.609288	-210.775024	174.680542	647.637756
10476.612597	-206.625427	172.284286	656.579895
10476.615931	-200.780884	170.355576	664.528442
10476.619265	-193.942780	167.725540	673.353699
10476.622598	-188.273590	165.855286	682.938782
10476.625929	-181.318588	163.634369	689.659973
10476.629264	-174.655807	161.588776	697.257874
10476.632599	-168.051483	159.192505	706.667542
10476.635928	-161.154938	156.504028	711.810791
10476.639279	-154.083054	154.516891	719.467102
10476.642594	-146.134476	151.945297	724.727234
10476.645951	-138.536591	149.841263	734.370667
10476.649263	-130.938690	145.808533	738.695618
10476.652605	-122.990112	143.412277	747.228699
10476.655933	-114.807770	140.723785	751.261414
10476.659257	-106.742310	138.327530	756.813660
10476.662600	-98.384621	135.463699	762.775085
10476.667215	-81.552361	128.333374	771.308105
10476.670170	-72.785553	125.820221	776.159058
10476.673469	-64.310982	122.313499	781.302307
10476.676906	-54.842834	118.923676	783.289368
10476.680200	-46.192917	114.715607	788.315735
10476.683041	-37.309231	111.442657	789.601562
10476.686353	-28.425537	107.526825	792.699097
10476.689679	-18.489826	103.377213	798.952820
10476.693021	-9.313904	99.052246	800.589233
10476.696350	-0.196430	95.077965	799.829468
10476.699255	8.687263	90.460777	803.686890
10476.702594	18.389191	85.785156	805.031067
10476.705927	28.734020	81.284859	804.096008
10476.709260	38.026833	76.433891	806.609131
10476.712587	47.494980	72.284279	805.264893
10476.715927	57.196907	67.199532	806.375366
10476.719253	66.665054	61.764118	806.667542
10476.722586	76.483871	57.030041	807.076721
10476.725925	85.776688	51.653072	806.842957
10476.729253	95.011047	46.509880	802.517944
10476.732597	104.186966	41.892696	799.770996
10476.735922	113.772011	36.807949	797.725464
10476.739256	122.947929	31.430981	795.504517
10476.742588	131.948517	26.813795	795.036926
10476.745918	140.539978	21.904387	790.478210
10476.749252	149.774353	17.871656	785.744141
10476.752589	158.541153	13.488255	781.536072
10476.755917	166.489716	8.520400	778.847534
10476.759253	174.613617	4.136998	772.067871
10476.762623	182.912857	-0.129513	764.996033
10476.765915	190.627640	-3.402452	761.547729
10476.769257	198.868439	-8.370307	756.112366
10476.772585	205.940323	-11.877028	749.449585
10476.775918	213.888901	-15.383750	743.312805
10476.779249	220.142548	-18.656689	736.474731
10476.783508	233.935654	-25.845469	721.804932
10476.786869	238.611282	-28.475508	713.681030
10476.790147	244.981827	-31.690002	708.946960
10476.793435	250.884811	-34.378490	700.413879
10476.796750	255.735764	-37.592983	693.868042
10476.799681	262.047882	-39.989243	686.387024
10476.803007	265.963715	-42.151722	678.029358
10476.806375	271.106903	-44.547981	673.645935
10476.809700	276.191650	-46.885796	663.534912
10476.812582	280.458130	-49.574280	654.943420
10476.815915	284.490875	-52.262768	647.520874
10476.819245	289.166504	-54.542133	639.513855
10476.822579	292.673248	-57.464401	630.279480
10476.825940	296.530640	-59.217766	624.318054
10476.829241	299.102234	-61.380241	615.551270
10476.832574	301.790710	-64.360962	607.485840
10476.835914	305.238983	-66.348099	596.965637
10476.839242	308.219696	-68.744362	588.374207
10476.842574	310.615967	-70.147049	580.191833
10476.845912	312.836884	-72.952431	571.132812
10476.849275	314.882477	-75.056458	563.418030
10476.852576	318.038513	-77.394272	555.469421
10476.855909	318.915222	-79.381416	546.877991
10476.859245	321.136139	-81.485443	536.883850
10476.862574	322.480347	-83.121918	528.993713
10476.865905	323.707703	-84.583054	520.051575
10476.869246	324.409058	-86.394859	511.752350
10476.872569	326.980652	-87.563766	502.167328
10476.875912	326.922211	-89.024895	494.803192
10476.879237	327.389771	-90.661369	486.094818
10476.882576	327.857330	-92.239395	478.029388
10476.885904	328.500244	-93.291412	471.308197
10476.889261	328.208008	-94.810989	462.892059
10476.892594	328.558685	-95.278549	453.949860
10476.897183	328.383331	-97.148804	439.163208
10476.900081	328.675568	-98.609940	429.811951
10476.903441	329.961395	-98.960609	421.045135
10476.906770	329.493835	-99.252838	414.616180
10476.909724	328.675568	-100.187958	407.310516
10476.913016	328.208008	-100.655525	400.647736
10476.916344	326.922211	-101.123085	394.452515
10476.919699	326.863770	-100.597076	386.796173
10476.923029	325.636414	-101.532204	380.717896
10476.926325	326.220856	-101.123085	374.405762
10476.929230	325.461090	-100.713974	368.795013
10476.932568	323.006378	-101.707535	362.073792
10476.935896	322.538818	-101.123085	356.346161
10476.939235	321.662140	-100.889305	349.917175
10476.942566	321.253021	-100.421738	343.955750
10476.945899	319.207428	-101.006195	338.169647
10476.949232	317.863190	-100.772415	333.143341
10476.952583	317.687866	-100.830864	327.415680
10476.955897	315.642242	-100.830864	321.688080
10476.959229	314.940918	-100.713974	316.778656
10476.962559	313.246002	-100.129517	312.570587
10476.965894	313.830444	-100.830864	307.252075
10476.969237	311.083527	-100.363297	303.219330
10476.972564	309.973053	-99.895737	296.965668
10476.975906	308.044373	-100.655525	291.121124
10476.979241	306.641693	-100.713974	287.555969
10476.982559	305.238983	-100.772415	282.705017
10476.985898	303.485626	-100.772415	278.204712
10476.989227	302.608948	-100.947754	273.762848
10476.992558	301.147797	-100.363297	268.970367
10476.995927	299.920441	-100.187958	264.879181
10476.999225	297.641113	-100.480186	260.378876
10477.002560	296.296844	-100.421738	255.937042
10477.005891	295.478607	-99.954178	251.612091
10477.010571	291.562775	-101.006195	244.423309
10477.013473	291.387451	-100.655525	239.280121
10477.016820	289.283417	-100.655525	235.714935
10477.020153	287.062500	-100.538635	232.909576
10477.023422	286.653351	-100.187958	228.759949
10477.026740	284.490875	-100.421738	225.077881
10477.029649	282.562195	-100.129517	222.681641
10477.032992	281.802399	-100.187958	219.291809
10477.036313	279.756836	-99.837288	216.895538
10477.039701	279.698364	-99.837288	212.395264
10477.042558	277.477448	-99.428177	210.524994
10477.045894	276.133179	-98.726830	207.193604
10477.049221	275.607178	-97.967033	205.440247
10477.052553	274.379822	-98.434601	202.810211
10477.055893	272.334259	-97.733253	200.530823
10477.059223	271.165344	-97.441032	198.777466
10477.062631	270.522461	-97.441032	195.855194
10477.065898	270.171753	-96.739685	193.751160
10477.069220	269.528870	-96.330566	191.764038
10477.072560	268.885986	-96.564346	190.244446
10477.075918	266.255920	-96.213676	187.789764
10477.079221	266.080627	-95.629227	186.737732
10477.082571	265.145477	-95.161659	184.283020
10477.085886	264.444122	-94.109642	183.347900
10477.089221	263.450562	-94.752548	182.003632
10477.092551	262.807678	-95.103218	180.016510
10477.095887	261.872559	-94.109642	178.087799
10477.099222	260.352966	-93.349854	178.146271
10477.102552	260.528290	-93.408302	176.042236
10477.105883	259.067169	-93.057632	174.697968
10477.109216	259.242493	-92.706955	171.951050
10477.112554	257.547577	-93.232964	171.717255
10477.115879	256.670898	-92.765396	169.671692
10477.119232	257.313782	-92.239395	168.619659
10477.123473	254.683762	-92.180946	165.989624
10477.126746	253.865509	-92.239395	164.645386
10477.130064	254.391541	-91.830276	163.593384
10477.133395	252.112167	-92.297836	163.184235
10477.136752	252.462830	-91.654938	161.547791
10477.140092	251.761490	-92.239395	160.145111
10477.143006	250.534134	-92.064056	159.034637
10477.146328	251.118607	-91.771835	157.515045
10477.149672	250.125015	-91.771835	156.989044
10477.153036	249.891251	-91.947166	156.170807
10477.155878	248.313217	-91.771835	155.469482
10477.159211	247.787201	-92.180946	155.001923
10477.162581	247.378098	-91.888725	153.716095
10477.165878	247.261200	-92.414726	152.780975
10477.169231	246.501404	-91.947166	152.605621
10477.172547	246.150742	-91.830276	151.436737
10477.175881	245.975403	-91.654938	151.378265
10477.179208	246.793640	-91.479599	151.027618
10477.182545	246.209183	-92.122505	151.495178
10477.185872	246.092285	-91.596489	150.910706
10477.189206	245.624725	-92.064056	151.495178
10477.192546	245.566284	-91.947166	151.495178
10477.195874	245.040283	-91.654938	152.254974
10477.199206	245.040283	-91.771835	152.547211
10477.202545	245.975403	-91.304268	152.021210
10477.205894	245.390945	-91.304268	151.904297
10477.209207	245.858521	-91.187378	152.722534
10477.212543	246.852081	-91.654938	152.430298
10477.215895	246.150742	-91.245819	153.423889
10477.219204	246.267609	-90.895149	153.482330
10477.222537	247.085876	-90.778259	154.300537
10477.225870	247.027405	-90.953598	154.125214
10477.229202	247.436539	-90.836708	155.235687
10477.232540	247.085876	-91.245819	155.937042
10477.235871	248.780792	-90.427589	157.105927
10477.240498	249.189896	-90.719818	157.690399
10477.243428	249.832779	-90.252251	158.508606
10477.246746	249.774353	-90.895149	159.209961
10477.250165	250.008118	-91.245819	159.619080
10477.253464	250.183472	-90.836708	160.437317
10477.256305	251.410812	-91.888725	161.197113
10477.259636	252.112167	-91.538048	162.366028
10477.262954	251.878372	-92.064056	162.716675
10477.266282	253.105728	-91.888725	163.827148
10477.269631	253.748642	-92.297836	165.288300
10477.272534	253.923981	-92.823845	165.580505
10477.275866	254.917542	-93.466743	167.450775
10477.279200	255.034439	-92.999184	168.619659
10477.282532	255.911102	-93.174522	169.087219
10477.285864	256.086456	-93.817413	170.665253
10477.289198	257.489136	-94.109642	169.671692
10477.292549	258.248901	-94.109642	172.126404
10477.295861	259.125610	-93.992752	173.938171
10477.299202	258.891846	-94.694099	174.581116
10477.302538	259.651611	-95.453888	176.042236
10477.305863	260.937408	-96.096786	176.860443
10477.309195	260.937408	-96.155235	177.795593
10477.312526	261.638733	-96.564346	181.010071
10477.315862	262.573853	-96.681236	183.172577
10477.319195	264.035034	-96.389015	184.049255
10477.322533	263.976562	-97.031914	186.854645
10477.325861	266.606598	-97.207253	188.432648
10477.329191	266.431274	-97.733253	190.945801
10477.332533	267.541748	-97.499474	192.932953
10477.335903	269.236633	-97.616364	195.329193
10477.339191	270.522461	-98.434601	197.725433
10477.342524	271.866699	-98.142380	200.121704
10477.345857	272.860260	-97.382584	202.810211
10477.349193	274.613647	-97.265694	206.726044
10477.352522	276.016296	-98.200821	208.946991
10477.356792	278.061890	-98.609940	214.849976
10477.360113	279.639923	-99.019051	218.356659
10477.363374	281.919312	-98.259270	221.512726
10477.366712	283.555756	-98.609940	224.902557
10477.370029	284.900024	-98.376160	227.591034
10477.372956	285.659790	-98.785271	230.805542
10477.376281	287.822296	-99.545067	234.370697
10477.379678	288.056061	-99.603508	237.877441
10477.382971	289.750977	-99.545067	242.962158
10477.386303	291.212097	-99.428177	245.475311
10477.389186	292.205688	-100.597076	248.572906
10477.392525	294.134369	-100.071068	252.138092
10477.395856	295.011047	-100.304848	255.644806
10477.399189	297.699524	-100.246407	260.612671
10477.402519	297.641113	-101.064644	264.820740
10477.405857	299.102234	-101.064644	268.853455
10477.409192	300.037354	-101.707535	272.184845
10477.412521	301.381592	-101.707535	276.860474
10477.415854	303.485626	-101.882874	281.126984
10477.419183	304.829865	-102.467331	285.101257
10477.422556	305.531189	-102.584221	291.004242
10477.425850	308.102814	-102.876442	296.381226
10477.429187	308.278137	-102.759552	300.823059
10477.432512	309.973053	-103.344009	305.381805
10477.435853	311.551086	-103.694679	310.408112
10477.439185	312.310883	-103.168678	314.966827
10477.442519	313.772003	-104.162239	320.577576
10477.445849	313.479797	-104.103806	325.428558
10477.449182	315.291595	-104.512924	332.091309
10477.452575	316.928070	-103.285568	337.292969
10477.455848	319.032074	-103.986908	342.786835
10477.459184	318.681427	-103.986908	348.865173
10477.462515	319.733429	-103.402458	354.359009
10477.465878	322.363495	-103.811577	360.145081
10477.470487	323.181702	-103.402458	374.756409
10477.473424	324.409058	-102.291992	380.776306
10477.476748	325.811768	-102.467331	389.017090
10477.480126	325.577972	-101.590645	394.803192
10477.483435	326.571533	-101.181534	402.868652
10477.486336	328.266479	-100.071068	409.531433
10477.489602	327.974243	-99.428177	418.122894
10477.492942	327.857330	-99.194389	425.077911
10477.496273	328.149567	-97.850143	433.669373
10477.499595	328.383331	-96.856575	442.494629
10477.502939	328.091125	-96.330566	448.865173
10477.505846	328.324890	-95.161659	456.579926
10477.509198	329.493835	-93.583633	464.411652
10477.512507	328.149567	-93.232964	472.126373
10477.515842	329.084686	-91.830276	481.068573
10477.519177	327.272888	-90.661369	489.601532
10477.522508	326.863770	-89.901581	495.855194
10477.525846	325.928650	-88.323555	506.842926
10477.529175	325.285736	-87.213097	513.856384
10477.532568	323.415466	-85.868851	521.278931
10477.535836	322.246582	-84.232384	528.350769
10477.539179	320.610107	-82.888138	537.760498
10477.542510	320.025665	-81.427002	547.520874
10477.545834	317.746307	-80.550323	554.826538
10477.549171	316.460510	-78.913849	564.060913
10477.552525	315.583801	-77.277382	572.067932
10477.555841	312.193970	-76.342255	578.380005
10477.559167	310.849762	-74.822678	586.503967
10477.562506	307.693695	-72.893982	595.855164
10477.565842	304.362305	-71.257507	604.972656
10477.569174	301.498505	-69.562599	614.499268
10477.572511	299.219116	-67.633896	622.389343
10477.575843	296.413757	-65.237633	631.565308
10477.579173	291.445892	-63.367382	639.981445
10477.582506	288.056061	-61.146461	646.351990
10477.586781	279.698364	-56.587723	663.944031
10477.590109	275.607178	-54.366802	671.658813
10477.593356	270.405579	-50.918526	678.555359
10477.596685	266.314392	-48.346928	687.029968
10477.600016	260.762085	-45.073990	693.926453
10477.603379	255.677338	-41.099705	702.108826
10477.606258	249.657455	-39.112564	711.050964
10477.609616	243.696030	-35.021389	717.363098
10477.612974	237.968384	-31.280886	725.662354
10477.616288	232.182297	-27.248156	731.331482
10477.619170	225.051956	-24.092106	739.455444
10477.622499	218.447632	-19.650261	745.650635
10477.625867	211.667984	-15.266859	752.138123
10477.629169	203.777847	-11.175684	757.456543
10477.632498	196.355301	-6.909174	761.781555
10477.635832	189.341858	-1.941319	766.398743
10477.639173	181.159515	2.617419	772.827698
10477.642496	173.736938	6.650149	779.548889
10477.645823	165.320816	11.442667	783.464783
10477.649162	157.021576	15.416952	785.510315
10477.652495	148.605438	20.618587	791.822510
10477.655832	139.780182	25.527998	795.387634
10477.659160	131.422516	29.210056	797.842346
10477.662492	122.655701	33.593456	798.193054
10477.665823	114.181122	39.204212	803.219299
10477.669167	105.589661	42.418705	803.920593
10477.672493	96.121513	47.445007	806.901306
10477.675824	87.588486	51.185509	808.011780
10477.679163	78.295677	55.276680	808.187134
10477.682486	68.769089	60.302982	810.408081
10477.685831	59.300941	64.277267	810.232666
10477.689157	50.651028	67.959320	807.836487
10477.692493	42.001114	71.933609	809.239136
10477.695820	32.299187	75.323433	810.291138
10477.699157	21.954359	79.999062	807.836487
10477.703786	4.186972	87.772293	805.790833
10477.706710	-5.514959	91.045235	802.693298
10477.710025	-14.632435	94.844185	801.933533
10477.713476	-23.925247	98.584686	796.731934
10477.716770	-32.867386	101.916069	796.030457
10477.719605	-42.160194	105.773468	791.588623
10477.722915	-51.453003	109.455521	790.244446
10477.726250	-60.278252	112.553131	781.828247
10477.729580	-69.571068	117.637871	777.678650
10477.732919	-78.454758	120.560143	774.347290
10477.735815	-87.046234	124.826660	772.184814
10477.739153	-95.813026	128.450256	764.820740
10477.742508	-104.638275	131.840103	756.755188
10477.745822	-112.879074	135.580597	751.378296
10477.749150	-120.710754	139.262650	748.631348
10477.752485	-128.367096	142.535583	739.046265
10477.755823	-136.783218	145.574753	731.214600
10477.759151	-144.030441	148.672348	723.324524
10477.762481	-151.511459	151.477722	715.375916
10477.765823	-159.050903	154.984451	708.304016
10477.769148	-166.298126	157.030045	703.043945
10477.772491	-172.902451	161.179657	693.108215
10477.775817	-179.740555	163.400589	685.276550
10477.779151	-185.585083	166.381302	676.743591
10477.782482	-192.130981	169.537354	666.866333
10477.785843	-196.981949	170.706253	662.599731
10477.789147	-203.761597	173.570068	652.371826
10477.792484	-207.969650	174.972763	643.663452
10477.795813	-213.112839	177.544357	635.072021
10477.799150	-218.022263	179.765274	627.065002
10477.802482	-223.749908	180.291290	618.415100
10477.805814	-227.081284	181.752426	609.882080
10477.809149	-231.347809	182.745987	600.355469
10477.812482	-235.497406	183.564224	592.582214
10477.815814	-238.653473	185.025375	583.990784
10477.820016	-246.660492	186.077377	566.574036
10477.823441	-250.868561	186.077377	557.748779
10477.826746	-252.680359	186.895615	550.150940
10477.830019	-256.362427	186.954056	541.091858
10477.833332	-259.869141	187.830750	534.487549
10477.836230	-261.856293	187.421631	525.370056
10477.839566	-263.609650	187.889191	516.544800
10477.842902	-266.356567	187.070953	510.174286
10477.846225	-268.752838	186.720276	499.654144
10477.849592	-271.558197	187.304733	492.056244
10477.852477	-272.785553	187.363174	484.867462
10477.855812	-274.889587	186.428055	476.743622
10477.859144	-276.993622	185.376038	467.626068
10477.862500	-277.402740	185.551361	459.268402
10477.865840	-279.682098	185.259155	451.553619
10477.869138	-280.909454	184.324020	443.838837
10477.872496	-280.266571	184.148682	435.773407
10477.875812	-281.961487	183.622681	427.766357
10477.879144	-281.493927	183.622681	418.824219
10477.882470	-281.786133	183.096664	411.693909
10477.885816	-283.539490	181.635529	404.797363
10477.889142	-283.422638	181.167969	397.141022
10477.892475	-283.422638	181.167969	388.900208
10477.895802	-283.364166	180.057510	380.834747
10477.899143	-283.013489	179.589951	374.347351
10477.902474	-284.182404	178.830154	367.567657
10477.905809	-283.071930	177.485916	360.261993
10477.909139	-283.188843	177.076797	352.897858
10477.912468	-282.370605	176.141663	345.650665
10477.915819	-281.026367	174.972763	339.981445
10477.919139	-280.500366	174.388306	333.435577
10477.922468	-279.857452	173.160950	326.480560
10477.925798	-280.032776	172.751846	320.285370
10477.929149	-278.220978	171.407608	314.090179
10477.933772	-276.642944	169.654236	303.044006
10477.936653	-276.467621	168.543777	296.264313
10477.939986	-275.240265	168.134659	290.887360
10477.943329	-274.246704	167.550201	285.393494
10477.946692	-273.837585	166.089066	280.600952
10477.949585	-272.142670	164.920166	276.392914
10477.952960	-271.207550	163.634369	270.899048
10477.956289	-270.097076	162.173233	265.814301
10477.959577	-268.168365	161.413437	262.658264
10477.962885	-267.233246	160.653641	256.989075
10477.965795	-266.707245	159.660080	253.131653
10477.969130	-265.713684	157.322266	248.748260
10477.972463	-264.311005	156.796265	244.189514
10477.975800	-262.966736	155.627350	239.455444
10477.979129	-261.505615	154.107773	236.299377
10477.982466	-260.687378	152.705078	233.318665
10477.985797	-260.044464	151.886856	229.169067
10477.989125	-258.524872	150.425720	225.019440
10477.992461	-257.940460	148.906128	221.103607
10477.995809	-258.115784	148.380127	216.837097
10477.999124	-255.193512	146.743652	213.973267
10478.002460	-253.966156	145.633194	211.343231
10478.005794	-253.732391	144.639618	207.719635
10478.009131	-252.797272	143.120041	204.271362
10478.012468	-251.277679	142.477158	200.297058
10478.015803	-249.407410	141.249802	197.783905
10478.019122	-247.829407	140.373108	193.751160
10478.022456	-247.478699	139.554886	190.069122
10478.025795	-246.660492	138.678207	186.971497
10478.029125	-244.731812	137.041733	184.283020
10478.032456	-242.744659	136.632614	182.471222
10478.035796	-241.984863	135.989716	179.432068
10478.039161	-240.757507	134.996140	176.509796
10478.042457	-239.705475	134.762360	172.301727
10478.045795	-238.478149	134.645477	169.028778
