time (s)	magX	magY	magZ
5221.141531	261.989410	-142.502396	-687.429443
5221.144869	266.314392	-143.788193	-679.773071
5221.148201	269.295105	-145.190887	-671.240112
5221.151533	272.801819	-146.418243	-662.940857
5221.154863	276.308533	-148.580704	-655.401428
5221.158198	278.237244	-149.282059	-646.868347
5221.161530	281.802399	-150.567856	-639.562683
5221.164865	284.315552	-152.496552	-631.029724
5221.168194	286.770264	-152.905670	-624.016235
5221.171562	288.874268	-153.899246	-615.541626
5221.174857	290.802979	-154.892822	-608.411377
5221.178212	293.199249	-155.594162	-600.579651
5221.181528	294.485046	-156.996841	-592.397278
5221.184863	297.173523	-156.587723	-585.909912
5221.188200	297.407318	-157.931976	-577.259949
5221.192880	299.628235	-158.516418	-563.583740
5221.195759	301.907593	-158.691772	-556.628723
5221.199126	302.433624	-159.977554	-549.732178
5221.202464	303.018066	-159.393112	-542.660339
5221.205829	304.070068	-160.328232	-535.822205
5221.208643	304.596069	-161.088013	-527.172241
5221.211952	305.238983	-160.737350	-521.093994
5221.215312	305.589661	-161.088013	-514.314270
5221.218616	306.174133	-161.146469	-507.183929
5221.221955	306.992340	-161.263367	-499.586060
5221.224857	308.278137	-160.971130	-493.858398
5221.228191	308.044373	-161.555573	-487.078735
5221.231521	308.278137	-160.562012	-479.188629
5221.234856	307.927490	-160.562012	-472.759644
5221.238186	308.044373	-160.971130	-465.979980
5221.241527	308.102814	-160.094452	-459.317230
5221.244852	308.395050	-159.685333	-452.712891
5221.248192	309.096375	-159.860672	-446.166992
5221.251522	307.985901	-159.860672	-440.147125
5221.254874	309.213257	-159.451553	-433.601257
5221.258228	307.810577	-159.276215	-427.347595
5221.261520	307.518341	-157.990417	-421.678375
5221.264863	307.401459	-158.107300	-414.372711
5221.268185	307.869019	-158.399536	-408.411285
5221.271520	306.232544	-157.815079	-401.865417
5221.274849	306.057220	-157.464417	-396.780670
5221.278183	305.764984	-157.055283	-390.585449
5221.281523	305.472778	-155.944824	-385.033173
5221.284854	304.829865	-155.594162	-380.649780
5221.288191	304.011658	-155.535706	-374.688324
5221.291521	303.368744	-154.834366	-368.551575
5221.294851	303.544067	-154.600586	-364.285065
5221.298183	303.427185	-153.782349	-360.486115
5221.301538	301.673828	-153.139450	-355.401367
5221.306196	298.985321	-152.145874	-345.933197
5221.309128	298.751556	-151.502975	-341.666718
5221.312380	298.751556	-151.619873	-337.692413
5221.315696	297.465759	-150.860092	-334.361053
5221.319038	296.238403	-150.976974	-330.503632
5221.322387	295.478607	-149.574280	-326.646240
5221.325269	294.660400	-150.158737	-323.139526
5221.328602	293.842133	-149.749634	-320.041931
5221.331969	292.147217	-149.165161	-316.710541
5221.335297	291.971893	-148.580704	-313.379150
5221.338184	291.153656	-148.346924	-309.755554
5221.341517	290.043213	-147.820923	-306.248840
5221.344881	289.458740	-147.762482	-302.800568
5221.348181	288.757416	-147.178024	-299.878296
5221.351522	288.348267	-146.535126	-297.774261
5221.354844	286.770264	-146.009109	-294.501312
5221.358174	285.952026	-145.307770	-292.105042
5221.361512	285.484467	-144.898651	-288.773682
5221.364851	284.607788	-145.658447	-285.442261
5221.368183	283.964874	-144.021973	-283.513580
5221.371508	282.562195	-143.495972	-281.058868
5221.374840	281.393280	-143.437515	-277.961273
5221.378177	281.334839	-142.853073	-274.863678
5221.381512	280.458130	-142.502396	-272.058289
5221.384839	279.055481	-142.385513	-269.837372
5221.388197	279.347687	-141.099701	-267.265778
5221.391504	277.360535	-140.573700	-264.460388
5221.394843	277.769653	-139.872345	-261.830353
5221.398177	276.542297	-140.106125	-259.024963
5221.401505	275.957855	-139.697021	-257.330078
5221.404915	275.957855	-138.878784	-254.933807
5221.408181	274.146057	-138.352783	-252.654449
5221.411507	273.561615	-138.352783	-250.667297
5221.414837	273.035614	-138.235886	-248.446381
5221.418175	272.918701	-136.833191	-246.400787
5221.422349	270.580902	-136.014969	-243.303192
5221.425721	270.756226	-135.547409	-241.491364
5221.429047	269.937988	-135.313614	-239.387329
5221.432488	270.171753	-135.372070	-237.867767
5221.435760	268.827515	-135.313614	-237.283295
5221.438634	267.658630	-135.372070	-236.289734
5221.441928	268.184631	-135.372070	-235.413055
5221.445265	268.418427	-134.729156	-233.542816
5221.448589	267.658630	-134.612274	-233.309021
5221.451504	267.424835	-134.787613	-232.257019
5221.454835	267.483276	-133.501816	-231.263428
5221.458165	266.606598	-134.261597	-231.614105
5221.461505	267.015747	-134.846054	-229.919189
5221.464831	266.489716	-133.969376	-229.860748
5221.468166	265.554565	-133.618698	-228.516510
5221.471498	266.606598	-133.209595	-228.691833
5221.474857	265.788391	-133.560257	-228.633392
5221.478166	264.736359	-133.326477	-228.691833
5221.481497	265.437714	-134.086258	-227.698273
5221.484828	265.379242	-134.027817	-227.581390
5221.488168	265.496155	-133.618698	-227.873596
5221.491494	264.561035	-133.560257	-227.698273
5221.494863	265.028564	-133.794037	-226.646271
5221.498174	264.444122	-133.326477	-226.587830
5221.501499	264.736359	-133.268036	-227.172272
5221.504830	264.093445	-134.027817	-225.886475
5221.508164	264.210358	-133.092697	-226.529358
5221.511493	264.385681	-133.151138	-225.944916
5221.514832	264.035034	-132.917358	-226.646271
5221.518182	264.677917	-133.034256	-225.828033
5221.521492	264.268799	-133.209595	-226.470917
5221.524831	265.145477	-132.975815	-226.003357
5221.528159	264.853271	-133.268036	-226.295593
5221.531496	264.151917	-133.501816	-225.243561
5221.535691	265.379242	-132.917358	-226.470917
5221.539030	265.613037	-133.151138	-226.996918
5221.542434	264.210358	-133.443375	-227.230713
5221.545749	266.022156	-132.742020	-226.354034
5221.549017	266.139038	-133.151138	-227.230713
5221.551914	266.080627	-133.268036	-227.990509
5221.555249	266.197510	-133.735596	-228.925629
5221.558587	266.372833	-133.677155	-229.100952
5221.561948	266.781921	-133.268036	-230.152985
5221.564822	266.372833	-133.969376	-231.847900
5221.568157	268.126190	-134.436951	-232.257019
5221.571492	267.833954	-134.144714	-234.185699
5221.574820	268.184631	-134.378494	-234.945496
5221.578152	269.119751	-134.904510	-235.705292
5221.581492	269.996460	-134.787613	-237.692444
5221.584819	270.639343	-134.904510	-239.095123
5221.588156	270.230225	-136.424072	-240.965363
5221.591540	271.106903	-135.898071	-242.543396
5221.594830	271.399109	-136.131851	-243.887634
5221.598154	273.035614	-137.125427	-246.926788
5221.601487	273.035614	-136.950089	-248.621704
5221.604853	272.860260	-137.476105	-251.076416
5221.608148	274.204498	-137.768326	-251.660858
5221.611490	274.847412	-137.943665	-254.700043
5221.614820	275.198059	-138.820343	-256.336487
5221.618155	276.016296	-138.645004	-258.908112
5221.621484	277.009888	-140.164581	-261.187439
5221.624820	277.594360	-140.749039	-263.408386
5221.628152	278.412567	-140.456802	-264.752625
5221.631485	279.815247	-140.865921	-267.791779
5221.634818	279.990601	-141.158157	-270.655609
5221.638151	280.224365	-141.801056	-272.467407
5221.641483	281.159515	-141.391937	-275.097473
5221.645750	281.919312	-142.853073	-280.299072
5221.649115	282.795959	-143.379089	-282.403137
5221.652333	284.081787	-143.437515	-285.150055
5221.655678	284.607788	-143.495972	-287.838562
5221.659001	284.724670	-144.489548	-289.416565
5221.662341	286.887146	-144.431091	-292.631073
5221.665239	286.828705	-144.781769	-295.436462
5221.668594	288.991180	-144.898651	-298.709381
5221.671949	288.757416	-145.658447	-301.456299
5221.675263	289.926300	-145.892227	-304.320129
5221.678217	290.978333	-145.833786	-307.709961
5221.681485	291.796539	-147.178024	-310.223114
5221.684814	292.264130	-147.236465	-314.314270
5221.688142	293.140808	-147.820923	-317.528778
5221.691516	294.426605	-148.113144	-321.619965
5221.694812	295.303284	-147.937820	-326.237152
5221.698154	296.296844	-148.989838	-328.984070
5221.701482	297.874878	-149.632736	-333.367462
5221.704807	298.459320	-149.515839	-338.627533
5221.708142	299.219116	-149.398956	-342.426514
5221.711477	299.745117	-150.041840	-346.400787
5221.714807	300.037354	-150.860092	-351.485535
5221.718140	301.615356	-150.334076	-356.628723
5221.721478	301.206268	-151.093872	-361.596558
5221.724810	302.492065	-151.619873	-366.272186
5221.728138	303.544067	-152.496552	-371.473846
5221.731473	304.888306	-153.081009	-376.909241
5221.734826	304.362305	-153.314789	-381.935547
5221.738141	306.232544	-154.191467	-388.247650
5221.741472	306.758545	-154.425247	-394.150635
5221.744805	305.764984	-154.951248	-399.586060
5221.748193	307.167694	-155.185028	-405.255249
5221.751478	306.933899	-155.477264	-410.515350
5221.754806	306.933899	-155.769501	-417.411896
5221.758140	307.752136	-156.821503	-423.314880
5221.762324	308.161255	-156.821503	-435.296173
5221.765657	309.680817	-156.704620	-441.082245
5221.769003	309.447052	-157.405960	-446.985229
5221.772354	310.557526	-157.873520	-454.290924
5221.775256	309.096375	-157.464417	-460.427673
5221.778605	310.089966	-157.698196	-466.622894
5221.781917	309.973053	-158.282639	-471.824524
5221.785310	310.908173	-157.522842	-479.656189
5221.788562	309.505493	-157.931976	-485.208466
5221.791464	309.680817	-157.230637	-491.812805
5221.794801	308.628815	-157.639740	-499.001617
5221.798132	309.154846	-157.055283	-504.086365
5221.801468	309.154846	-157.055283	-511.567352
5221.804800	308.745697	-156.704620	-518.346985
5221.808135	308.745697	-156.646164	-524.425354
5221.811466	308.219696	-156.587723	-533.075256
5221.814797	307.284576	-156.178604	-539.270447
5221.818135	306.641693	-155.068146	-547.102173
5221.821503	306.115662	-155.185028	-553.472717
5221.824796	304.596069	-154.600586	-561.655029
5221.828131	303.485626	-153.957687	-569.369812
5221.831460	301.440033	-153.548569	-576.733948
5221.834794	299.745117	-152.496552	-584.214966
5221.838130	299.628235	-151.619873	-592.689514
5221.841467	297.991760	-150.743195	-600.638123
5221.844799	295.887726	-149.866516	-609.814026
5221.848163	293.725250	-149.282059	-616.126099
5221.851465	290.510773	-149.106720	-624.308472
5221.854791	289.049622	-147.178024	-633.309082
5221.858124	286.419586	-145.833786	-640.556274
5221.861465	283.029755	-145.190887	-648.446411
5221.864824	281.101044	-143.788193	-658.265198
5221.868130	277.126770	-142.560837	-665.979980
5221.872747	270.931580	-139.638565	-682.227783
5221.875665	267.015747	-138.352783	-689.708801
5221.879054	263.158325	-136.833191	-696.897583
5221.882383	258.833374	-135.430511	-706.073547
5221.885725	255.443542	-132.391342	-713.437622
5221.888972	251.703033	-130.754868	-720.918640
5221.891879	246.501404	-129.527527	-727.756714
5221.895220	241.825775	-126.897491	-734.477966
5221.898539	237.559265	-125.027245	-742.718750
5221.901879	233.526520	-122.104965	-749.732178
5221.904787	228.208008	-120.000938	-758.323669
5221.908145	222.714142	-118.422913	-763.525269
5221.911458	217.863190	-115.091530	-770.188110
5221.914798	212.836884	-112.695267	-776.149475
5221.918121	207.810577	-110.532784	-782.286255
5221.921459	201.498489	-107.785858	-787.312561
5221.924784	195.712402	-104.980484	-793.916870
5221.928176	190.160080	-101.999771	-798.651001
5221.931459	185.016891	-98.843719	-805.255249
5221.934783	178.354126	-96.330566	-810.573792
5221.938121	172.275803	-92.064056	-814.957214
5221.941449	166.080612	-88.966454	-820.801758
5221.944786	158.950272	-85.985741	-822.730469
5221.948117	152.696609	-83.063477	-829.159424
5221.951484	146.033844	-79.673645	-833.192139
5221.954782	139.429520	-75.640915	-838.160034
5221.958119	132.357635	-72.075745	-841.432922
5221.961449	124.701294	-68.510582	-844.472107
5221.964787	117.220284	-64.360962	-847.452820
5221.968113	109.563950	-60.737347	-851.777771
5221.971455	102.082939	-56.996838	-854.349365
5221.974780	93.900589	-52.262768	-856.979431
5221.978121	85.835129	-48.113148	-858.966614
5221.981452	77.886566	-43.846634	-860.193848
5221.985703	60.878963	-35.138279	-863.583679
5221.989033	52.404388	-30.988659	-863.583679
5221.992298	43.988258	-26.663702	-865.453979
5221.995666	35.689018	-22.397192	-865.278687
5221.998961	25.694860	-18.422909	-865.453979
5222.001891	16.285160	-13.513498	-864.811096
5222.005205	7.576801	-9.013206	-864.051270
5222.008533	-1.248447	-4.863586	-863.057739
5222.011894	-9.489243	0.571832	-861.538147
5222.015235	-18.665161	5.539687	-860.369263
5222.018143	-27.373516	9.397080	-858.615906
5222.021459	-36.841667	13.955818	-856.102722
5222.024780	-44.556450	18.397665	-853.764954
5222.028109	-53.615479	22.605730	-850.492004
5222.031443	-61.797836	26.696903	-847.452820
5222.034775	-70.330856	30.788082	-844.530579
5222.038145	-77.694962	34.703918	-840.322510
5222.041446	-85.935760	38.970428	-836.698853
5222.044785	-93.884338	43.412277	-832.724609
5222.048108	-101.248444	47.269669	-828.341187
5222.051440	-109.606140	51.243958	-823.431763
5222.054773	-116.502686	55.335129	-820.801758
5222.058104	-123.633011	59.426304	-816.243042
5222.061439	-130.471130	62.816135	-809.346497
5222.064771	-137.659912	67.316422	-804.378601
5222.068105	-144.731781	71.582932	-800.053650
5222.071440	-150.810104	75.089653	-794.793579
5222.074769	-158.466446	78.537933	-789.650391
5222.078107	-164.369431	82.453766	-783.864319
5222.081466	-170.739975	86.194267	-775.681946
5222.084773	-177.110519	90.226997	-769.720520
5222.088112	-183.188828	93.149269	-763.525269
5222.091435	-189.325577	97.006668	-757.096313
5222.094771	-194.001236	100.454933	-750.024414
5222.099402	-205.924072	107.059265	-735.939087
5222.102285	-211.417953	110.039970	-728.575012
5222.105661	-216.035110	113.722038	-721.970642
5222.108964	-221.528992	116.527412	-713.496033
5222.112373	-226.847519	119.917236	-705.839722
5222.115213	-231.581573	122.255051	-698.651001
5222.118583	-236.257202	125.820221	-689.767273
5222.121867	-240.991302	127.982697	-681.468018
5222.125191	-246.602051	131.021851	-672.876526
5222.128524	-250.400970	133.125885	-665.804687
5222.131439	-253.907715	135.346817	-657.680725
5222.134766	-258.057312	137.976852	-648.212646
5222.138102	-262.732941	139.613327	-641.257629
5222.141430	-265.362976	141.658905	-632.432373
5222.144763	-269.629517	143.704498	-623.373352
5222.148095	-273.136230	146.392990	-615.249451
5222.151430	-276.116943	146.977432	-608.294434
5222.154763	-279.273010	148.906128	-599.878296
5222.158100	-282.662842	150.191940	-592.163513
5222.161427	-285.585083	151.886856	-582.052490
5222.164768	-287.747559	152.529755	-574.805237
5222.168115	-290.026947	153.698654	-566.739807
5222.171445	-291.780304	155.276672	-558.732788
5222.174771	-293.299866	156.620911	-552.303772
5222.178102	-296.339050	158.023605	-544.472107
5222.181434	-296.981934	158.900299	-536.172852
5222.184761	-299.728851	159.484741	-529.159424
5222.188099	-299.436615	160.010757	-521.795288
5222.191427	-302.066681	161.004333	-514.138977
5222.194757	-302.592682	161.880997	-507.885284
5222.198095	-303.001801	162.348572	-501.631653
5222.201428	-304.872040	163.225250	-493.799988
5222.204765	-304.638275	163.809708	-487.429443
5222.208094	-305.047394	164.452591	-480.766632
5222.212306	-308.203461	165.037064	-467.791748
5222.215705	-306.976105	165.972183	-461.070557
5222.219021	-308.495667	165.679947	-454.174011
5222.222357	-308.963226	167.024185	-447.394348
5222.225611	-308.495667	166.615082	-441.608246
5222.228513	-309.430817	167.491760	-434.302582
5222.231860	-309.606140	167.608658	-428.808716
5222.235192	-308.787903	167.842438	-423.081085
5222.238513	-309.197021	167.374878	-416.535187
5222.241424	-309.723022	168.309998	-409.404877
5222.244753	-308.203461	168.309998	-402.800537
5222.248089	-307.794312	168.076218	-396.839142
5222.251421	-307.852783	167.842438	-391.403717
5222.254773	-307.794312	168.017761	-385.792969
5222.258089	-307.502106	168.076218	-378.837952
5222.261417	-307.151428	167.783981	-373.285645
5222.264750	-306.566956	167.257980	-367.324219
5222.268121	-305.398071	167.374878	-361.012115
5222.271424	-306.333191	166.556625	-356.862518
5222.274754	-305.047394	166.089066	-351.368622
5222.278090	-303.235596	165.621506	-344.822754
5222.281418	-303.995392	165.446167	-340.848480
5222.284754	-302.709595	164.803268	-335.529938
5222.288081	-302.300476	164.394150	-330.854309
5222.291421	-302.183563	163.809708	-326.178680
5222.294750	-300.839355	163.400589	-321.210815
5222.298118	-298.852203	162.991455	-316.535187
5222.301418	-298.326172	162.991455	-311.801147
5222.304746	-299.144409	162.114792	-308.352875
5222.308086	-297.098816	162.056335	-303.618774
5222.311412	-296.923492	161.004333	-300.228943
5222.314747	-296.280579	160.302979	-295.962433
5222.318084	-294.936371	159.309402	-293.273956
5222.321411	-293.358307	159.660080	-290.234802
5222.325666	-292.423187	158.608063	-282.870697
5222.328929	-290.494507	159.367859	-279.656189
5222.332254	-289.910034	157.556046	-276.675476
5222.335595	-288.799591	157.672943	-273.753204
5222.338952	-287.864471	157.322266	-270.655609
5222.341854	-287.806030	156.387131	-268.084015
5222.345196	-286.929321	156.328705	-263.992828
5222.348531	-286.344879	156.094925	-261.070587
5222.351869	-284.299286	155.393570	-259.492523
5222.355179	-284.123962	155.627350	-256.511841
5222.358078	-282.487488	154.984451	-254.057129
5222.361417	-282.019928	154.633789	-250.316620
5222.364742	-280.967926	154.575333	-248.329468
5222.368079	-280.383453	153.640213	-244.705872
5222.371412	-280.032776	153.289536	-242.601837
5222.374742	-278.396301	152.646637	-240.322479
5222.378072	-278.045654	151.945297	-237.809326
5222.381409	-276.876709	152.120636	-235.763733
5222.384780	-275.824738	151.302399	-233.601257
5222.388074	-275.357178	150.425720	-230.795868
5222.391405	-273.486908	151.010162	-227.639832
5222.394739	-273.545349	150.717941	-225.652679
5222.398069	-272.493317	149.549026	-223.139526
5222.401410	-271.850433	148.263245	-220.626373
5222.404740	-271.149109	148.789246	-218.697693
5222.408073	-270.447754	147.971008	-216.769012
5222.411411	-269.103485	147.795670	-214.548065
5222.414783	-269.512604	147.444992	-212.560913
5222.418075	-268.168365	147.386566	-211.801147
5222.421411	-267.642365	145.457855	-209.463318
5222.424737	-266.648804	145.983871	-207.651520
5222.428107	-265.772125	145.165634	-205.898163
5222.431402	-265.304565	145.399414	-204.846130
5222.434740	-265.421448	144.639618	-203.911011
5222.439360	-263.901855	144.113617	-202.274536
5222.442283	-264.427856	143.061600	-200.930298
5222.445618	-263.375854	143.529160	-198.767822
5222.449009	-263.258972	142.769363	-198.008026
5222.452328	-263.317413	143.236938	-197.248230
5222.455164	-261.973175	143.178497	-196.722229
5222.458497	-261.797821	142.243378	-196.488464
5222.461823	-261.680939	142.827820	-195.611755
5222.465168	-261.388733	142.301804	-195.027313
5222.468486	-260.687378	142.243378	-194.442871
5222.471429	-261.213379	142.184921	-193.040161
5222.474736	-260.044464	141.775803	-193.273956
5222.478065	-259.752228	141.542007	-193.624634
5222.481397	-259.460022	141.366684	-192.981750
5222.484730	-260.278259	141.191345	-193.098633
5222.488068	-259.576904	141.249802	-191.988159
5222.491400	-260.161377	141.366684	-191.345276
5222.494730	-259.226227	142.009583	-192.046600
5222.498060	-259.284668	141.249802	-191.345276
5222.501449	-259.050903	141.600464	-190.760803
5222.504736	-258.700226	141.775803	-191.462158
5222.508064	-258.700226	141.366684	-190.819244
5222.511398	-258.700226	141.658905	-190.293243
5222.514756	-258.524872	141.542007	-190.585480
5222.518069	-258.057312	142.126480	-190.351685
5222.521399	-257.531311	142.301804	-190.351685
5222.524732	-259.518463	141.951141	-189.591888
5222.528062	-258.641785	142.009583	-189.942596
5222.531397	-258.232666	141.308228	-190.468567
5222.534726	-258.641785	141.775803	-190.234802
5222.538063	-258.291107	141.658905	-189.825684
5222.541393	-258.875580	141.191345	-189.416565
5222.544729	-258.992432	141.249802	-190.585480
5222.548056	-259.284668	141.600464	-190.760803
5222.552321	-258.583344	142.009583	-191.462158
5222.555678	-259.518463	142.126480	-191.520599
5222.559008	-260.219788	141.775803	-191.988159
