time (s)	magX	magY	magZ
8976.769274	405.706573	-165.296082	629.519714
8976.772597	403.953186	-163.542725	646.877991
8976.775930	403.894745	-161.614029	662.599731
8976.779267	400.504913	-158.691772	676.568237
8976.782600	399.745117	-156.353943	693.166687
8976.785933	396.764404	-154.249908	709.063843
8976.789298	394.134369	-151.093872	725.603882
8976.792598	387.997620	-147.704025	740.273682
8976.795932	385.367584	-145.366211	756.813660
8976.799264	379.990601	-141.275055	772.243286
8976.802599	374.788971	-138.294327	787.497498
8976.805925	370.171783	-133.735596	804.271301
8976.809256	364.327240	-130.228867	818.999512
8976.812591	357.489136	-126.371483	833.318665
8976.816851	343.170013	-116.727997	862.833557
8976.820195	336.916351	-112.519936	874.873291
8976.823571	328.149567	-108.136528	889.426208
8976.826792	318.973633	-103.227119	902.985535
8976.830111	310.089966	-99.135941	915.960388
8976.833059	300.329590	-93.349854	928.409241
8976.836353	291.738129	-87.622208	940.858154
8976.839681	280.575043	-82.479019	951.144470
8976.843022	269.353546	-77.861839	961.723083
8976.846364	258.833374	-71.549744	973.003113
8976.849255	247.085876	-65.763649	981.886780
8976.852589	236.215027	-59.509991	992.114685
8976.855939	223.064819	-53.373226	999.128113
8976.859258	211.083527	-47.236469	1009.180725
8976.862589	197.407303	-40.982815	1013.739441
8976.865928	184.432449	-34.553825	1022.973816
8976.869257	171.223801	-27.891054	1025.487061
8976.872585	157.080017	-20.000933	1033.377197
8976.875949	143.462250	-13.162827	1034.779907
8976.879251	128.617126	-5.798712	1040.449097
8976.882590	114.122681	2.149856	1043.897339
8976.885919	99.569794	9.981534	1046.468994
8976.889252	84.198654	17.637877	1047.228760
8976.892586	69.587326	25.820225	1047.696289
8976.895921	54.859093	33.768791	1047.988525
8976.899249	39.721748	41.425133	1046.001343
8976.902585	23.649273	49.665928	1043.838867
8976.905911	8.511927	58.491177	1041.267334
8976.909250	-6.566975	66.673523	1037.877441
8976.912582	-21.470539	75.031204	1032.968018
8976.915921	-36.607887	83.564232	1027.532593
8976.919254	-51.277664	91.337463	1021.804993
8976.922589	-66.590355	99.519814	1016.778625
8976.925915	-80.325005	107.643723	1009.122253
8976.930109	-109.547684	123.365517	992.348450
8976.933430	-123.165451	130.671188	983.347839
8976.936828	-136.257202	137.275513	970.898987
8976.940118	-149.582764	144.464294	962.716614
8976.943506	-161.973160	151.127060	951.027649
8976.946357	-174.363571	157.263824	942.143860
8976.949718	-186.637100	163.049911	927.649475
8976.953035	-198.209305	169.011337	916.603210
8976.956341	-209.080109	174.388306	902.517944
8976.959679	-219.483383	179.414612	892.640625
8976.962600	-229.126877	184.265579	877.211121
8976.965917	-239.822388	188.239853	866.398743
8976.969243	-249.348969	191.980362	851.962708
8976.972578	-257.589752	196.188431	839.630737
8976.975909	-266.473480	199.870483	826.305237
8976.979248	-275.006470	201.799194	812.278320
8976.982580	-282.253693	205.188995	800.004822
8976.985911	-289.033386	208.169739	785.802612
8976.989244	-297.040375	210.682877	770.782166
8976.992589	-303.177155	212.027100	759.268433
8976.995912	-309.372345	214.072708	743.312805
8976.999245	-315.626007	216.118301	729.811890
8977.002575	-321.412109	217.813217	716.720154
8977.005908	-326.029266	218.923676	703.277710
8977.009253	-329.185333	220.910828	687.146790
8977.012583	-333.393402	221.845947	674.288879
8977.015909	-338.887238	222.079712	661.080200
8977.019240	-341.458862	224.242203	647.287109
8977.022609	-343.445984	224.183762	632.383545
8977.025906	-347.303375	224.592865	618.005920
8977.029239	-350.050323	224.183762	605.323303
8977.032570	-351.336121	225.177322	592.173096
8977.035926	-354.083038	225.527985	576.685120
8977.039238	-354.725952	224.651321	563.593323
8977.043925	-357.940460	226.287781	535.598022
8977.046784	-357.648224	225.703323	522.272522
8977.050170	-358.934021	224.651321	510.232758
8977.053493	-357.297546	224.943558	495.913666
8977.056758	-358.232666	223.190170	484.633698
8977.059665	-359.109344	222.781067	473.353729
8977.062998	-357.823547	222.079712	460.320404
8977.066350	-356.654633	221.086151	448.163788
8977.069661	-355.602631	220.910828	436.883881
8977.072991	-354.667511	219.215897	427.065033
8977.075902	-353.206360	218.748337	413.388824
8977.079251	-352.446564	216.761200	403.160889
8977.082564	-351.686768	215.007843	392.348480
8977.085894	-350.517883	213.312927	383.406342
8977.089235	-347.887848	212.903793	372.944641
8977.092565	-347.361847	210.858215	364.353180
8977.095901	-344.147339	209.163300	353.774536
8977.099253	-343.095306	207.176147	344.423309
8977.102569	-341.166626	206.007248	336.591614
8977.105897	-337.659882	203.727875	328.058594
8977.109264	-335.438965	201.565399	321.103607
8977.112569	-334.620758	198.760025	312.979706
8977.115902	-330.704926	197.824890	303.920654
8977.119228	-330.588013	195.603973	297.024109
8977.122575	-326.496826	193.733719	290.069122
8977.125894	-326.087738	190.811447	283.523224
8977.129228	-322.405670	189.525665	275.808472
8977.132568	-319.775604	187.889191	268.444336
8977.135896	-318.022278	185.083801	262.950470
8977.139229	-315.158447	183.856461	256.872162
8977.142558	-313.697296	180.934189	251.027618
8977.145894	-310.833496	179.531494	244.715546
8977.149228	-308.144989	176.667679	238.403442
8977.152569	-307.268311	176.083221	232.442017
8977.155888	-303.469360	173.920746	227.240356
8977.160150	-299.261292	169.420456	215.960419
8977.163415	-295.111694	167.550201	210.758759
8977.166742	-294.235016	166.205963	205.498688
8977.170070	-290.903625	164.861710	200.297058
8977.173431	-289.033386	163.575928	196.264313
8977.176321	-285.818878	161.822556	190.302887
8977.179672	-284.007050	159.192505	185.685699
8977.183004	-281.318573	157.848267	180.834747
8977.186337	-278.513214	156.445587	176.918915
8977.189294	-275.941589	154.926010	171.483490
8977.192557	-272.317993	153.114197	167.450775
8977.195906	-270.097076	152.295975	163.418030
8977.199219	-267.759277	150.893280	159.209961
8977.202556	-265.187653	149.081467	155.294128
8977.205884	-262.674500	147.444992	152.138062
8977.209224	-260.219788	146.159210	148.163788
8977.212557	-259.343140	144.756516	145.416870
8977.215886	-255.836395	143.412277	141.150360
8977.219221	-253.849243	141.483582	139.046326
8977.222554	-251.336121	140.957565	134.838257
8977.225889	-249.699646	138.970413	132.149780
8977.229218	-247.946289	138.385971	128.993713
8977.232582	-245.725372	136.807953	126.948128
8977.235889	-243.913544	136.048157	124.259636
8977.239217	-242.160187	134.411697	121.863380
8977.242551	-239.880829	133.651901	119.350243
8977.245886	-238.887238	131.781647	116.837090
8977.249216	-236.900116	131.080307	114.090157
8977.252554	-235.146759	129.969849	113.155022
8977.255914	-233.393402	128.859375	111.050987
8977.259215	-232.341370	128.099594	109.239189
8977.262548	-231.114014	126.638458	107.076714
8977.265883	-228.776199	125.995560	106.375359
8977.269218	-227.607315	124.768204	103.745323
8977.273842	-224.451248	122.897957	100.530830
8977.276785	-224.042145	121.144592	99.303474
8977.280088	-222.580994	120.560143	98.193016
8977.283480	-221.762772	120.267914	96.614998
8977.286810	-220.418518	118.689896	95.621422
8977.289661	-220.126312	117.871651	93.575844
8977.292976	-218.022263	117.170311	92.699150
8977.296311	-216.678009	116.235184	91.238014
8977.299629	-215.976685	115.709167	89.835320
8977.302974	-214.690887	115.358505	87.322182
8977.305886	-213.405075	114.774048	87.672859
8977.309217	-212.236176	113.838921	85.919487
8977.312550	-211.008820	113.429810	84.458351
8977.315876	-211.359497	112.553131	81.945213
8977.319237	-210.015259	112.260902	81.536095
8977.322545	-209.138580	111.325775	80.484077
8977.325873	-207.911224	111.793335	79.432060
8977.329208	-207.034531	110.624428	78.555382
8977.332539	-206.099396	110.215317	78.146263
8977.335873	-205.281174	109.923088	77.152687
8977.339210	-203.586258	110.039970	75.282433
8977.342584	-202.125137	109.689308	75.399330
8977.345876	-203.177155	109.163292	73.645966
8977.349206	-202.534241	108.871063	73.645966
8977.352537	-200.488647	108.578850	73.879745
8977.355870	-200.839340	108.169724	73.353737
8977.359206	-200.371750	107.585274	71.541931
8977.362570	-198.501511	106.650146	70.723701
8977.365869	-198.793732	107.585274	71.191269
8977.369209	-197.741730	106.883926	70.080795
8977.372538	-197.683273	107.117706	70.080795
8977.375869	-196.748154	106.357918	70.139244
8977.379209	-196.865051	106.650146	70.139244
8977.382536	-197.040375	106.007248	70.139244
8977.387240	-197.683273	105.831909	69.788582
8977.390130	-197.332611	106.007248	69.321014
8977.393471	-197.800171	105.422791	69.437904
8977.396721	-196.631256	105.189011	68.911888
8977.400061	-197.566376	105.189011	69.554802
8977.403385	-197.975510	105.656570	70.022362
8977.406324	-198.384628	105.831909	70.197693
8977.409621	-197.741730	106.182587	69.554802
8977.412965	-197.566376	105.890358	70.022362
8977.416321	-197.858612	105.831909	70.314583
8977.419205	-198.735291	105.890358	70.548363
8977.422538	-198.384628	105.948807	70.314583
8977.425870	-198.267731	105.773468	70.840591
8977.429215	-199.144424	106.416367	70.197693
8977.432551	-199.261292	106.416367	70.723701
8977.435900	-200.430222	106.825478	71.717270
8977.439197	-199.728851	107.409943	71.425049
8977.442534	-200.722443	106.650146	72.360176
8977.445864	-201.423782	106.942375	72.652390
8977.449201	-200.897781	107.293045	72.535507
8977.452531	-201.949799	107.468376	72.710838
8977.455862	-202.242035	108.052834	73.061516
8977.459202	-202.300461	107.468376	73.821297
8977.462534	-201.599106	109.046410	74.697990
8977.465856	-203.527817	108.754181	74.756439
8977.469195	-204.287613	109.221741	74.288864
8977.472530	-204.872055	109.455521	75.457787
8977.475868	-205.807175	109.806190	76.743568
8977.479215	-205.573410	110.215317	77.211128
8977.482530	-206.508530	110.449097	77.386467
8977.485863	-206.566971	111.208878	78.321587
8977.489195	-207.735886	111.851784	78.906059
8977.492526	-208.904785	112.962242	79.782722
8977.495855	-209.080109	112.962242	81.477654
8977.499241	-209.255463	114.540268	82.003654
8977.503391	-212.469940	115.650734	84.867485
8977.506701	-212.879074	116.994972	86.445503
8977.510067	-213.989532	117.462540	87.731300
8977.513403	-215.041550	118.572998	88.900200
8977.516736	-216.152008	118.806778	91.179573
8977.519638	-218.431396	119.625015	91.647148
8977.523003	-219.950958	120.151016	94.803185
8977.526300	-220.535416	121.670601	95.504524
8977.529614	-222.580994	122.079712	97.199440
8977.532946	-224.217468	123.599304	98.894356
8977.535858	-225.620163	124.475983	101.115273
8977.539183	-227.081284	125.937119	102.459526
8977.542521	-228.191742	126.521561	104.680443
8977.545855	-230.120453	127.047577	106.667595
8977.549192	-231.698486	128.099594	108.304070
8977.552521	-233.568726	128.391815	110.466545
8977.555852	-235.263641	129.736069	113.505699
8977.559190	-236.315674	130.904968	115.200615
8977.562520	-238.887238	131.664749	118.005989
8977.565873	-240.406830	132.482986	119.934700
8977.569186	-243.036865	133.651901	122.798500
8977.572517	-243.329102	134.762360	125.136314
8977.575847	-246.251343	135.872833	128.058594
8977.579183	-247.829407	137.275513	130.337952
8977.582541	-248.472290	137.743073	132.617340
8977.585850	-251.686768	139.613327	135.539581
8977.589185	-253.615479	141.016022	138.637207
8977.592515	-254.316833	141.483582	141.091919
8977.595849	-257.940460	143.938278	143.371277
8977.599185	-258.349548	144.522736	146.877991
8977.602518	-260.628937	145.691635	149.624939
8977.605851	-263.200500	147.503448	153.014771
8977.609209	-266.298126	149.198364	156.229248
8977.612511	-267.583923	150.659500	160.671082
8977.617199	-270.739960	153.640213	168.035217
8977.620064	-272.785553	155.393570	172.593964
8977.623448	-275.941589	157.731384	175.808472
8977.626771	-277.870300	159.543198	180.367187
8977.630033	-280.734131	160.536758	183.990784
8977.632946	-282.662842	162.290115	188.374176
8977.636270	-284.357758	164.627930	192.932953
8977.639627	-287.163116	166.089066	197.783905
8977.642941	-289.442474	168.368439	202.225739
8977.646269	-292.598541	169.362000	208.537842
8977.649180	-293.709015	171.699814	212.687469
8977.652515	-297.566376	173.277847	219.174896
8977.655846	-299.670410	175.206543	225.428558
8977.659173	-301.423767	177.778137	230.396423
8977.662511	-304.112274	178.888611	237.176086
8977.665843	-308.203461	180.583527	244.131073
8977.669192	-310.190582	182.395325	249.391174
8977.672508	-313.872650	184.733139	256.989075
8977.675844	-315.509125	186.077377	264.470062
8977.679175	-318.314484	187.421631	270.723724
8977.682531	-319.717194	188.707428	278.672272
8977.685844	-322.522552	190.928345	285.977936
8977.689169	-326.321503	192.681702	293.049835
8977.692507	-328.542450	194.201294	301.758179
8977.695844	-331.523132	195.662415	309.823639
8977.699170	-332.750488	196.948227	318.181335
8977.702502	-335.438965	198.993805	325.720764
8977.705842	-339.413269	200.396500	334.838257
8977.709170	-339.880829	202.968079	342.669922
8977.712504	-341.809509	203.903214	351.612091
8977.715836	-343.270660	206.007248	360.554199
8977.719166	-345.550018	207.643707	369.437927
8977.722498	-347.712494	208.520401	379.256714
8977.725843	-350.751648	210.682877	388.958679
8977.729172	-349.699646	212.670029	397.842346
8977.733430	-354.433716	215.183167	418.473572
8977.736687	-353.849243	216.702759	429.987274
8977.740015	-355.427307	218.806778	439.104797
8977.743356	-356.537750	219.858795	449.391174
8977.746710	-358.115784	221.086151	460.145111
8977.749592	-358.057312	222.605713	472.944611
8977.752939	-358.875580	223.657730	483.347870
8977.756279	-357.823547	225.644882	494.920074
8977.759624	-357.472900	226.521576	506.316925
8977.762533	-358.057312	227.164474	518.531982
8977.765830	-357.531311	227.748932	530.104187
8977.769164	-356.479309	228.099594	542.611450
8977.772497	-355.193512	229.210052	556.053894
8977.775835	-354.784393	229.560715	569.320984
8977.779166	-352.914124	230.086746	582.646545
8977.782496	-351.745239	229.210052	598.368347
8977.785826	-348.355408	230.203613	610.115845
8977.789162	-346.602051	229.034714	625.779236
8977.792500	-343.387543	229.560715	640.273682
8977.795828	-340.406830	228.450256	650.443115
8977.799163	-337.484558	227.339798	666.164917
8977.802495	-333.510284	226.463120	680.133423
8977.805850	-329.886658	224.359085	695.270752
8977.809160	-324.685028	222.897949	710.817200
8977.812495	-320.067841	220.618591	725.370056
8977.815827	-314.983093	218.339218	738.403442
8977.819161	-310.249023	216.059830	754.242065
8977.822495	-304.930511	212.845352	768.035156
8977.825828	-299.261292	209.864655	782.120544
8977.829168	-291.195831	206.007248	796.264343
8977.832495	-284.825317	203.026535	808.070251
8977.835829	-277.285858	200.338043	823.792053
8977.839155	-270.973755	195.954636	836.124023
8977.842489	-260.804260	191.454346	849.683350
8977.845828	-253.264832	186.661835	864.002502
8977.850028	-236.958557	178.654831	888.549500
8977.853367	-225.912399	173.979202	899.946350
8977.856697	-216.385788	169.303574	911.927673
8977.860091	-207.852783	164.394150	923.149170
8977.863421	-197.800171	159.017181	934.078430
8977.866271	-186.987762	154.809113	942.962097
8977.869600	-175.123367	148.964584	953.190125
8977.872909	-163.609634	143.412277	963.885559
8977.876239	-150.810104	137.684631	973.119934
8977.879587	-139.413269	131.723206	985.159607
8977.882486	-126.321503	125.878662	993.049744
8977.885822	-113.814194	119.858795	996.673401
8977.889153	-101.190010	114.131149	1004.563538
8977.892519	-86.637100	107.234596	1013.038147
8977.895818	-73.428459	100.922501	1018.765808
8977.899162	-60.044472	94.142838	1024.844116
8977.902483	-45.783806	87.421623	1027.298828
8977.905821	-31.406250	80.758858	1031.097778
8977.909146	-16.736465	74.329865	1036.533203
8977.912489	-2.534245	67.141083	1038.403442
8977.915815	11.901758	59.952312	1041.910156
8977.919220	26.688433	52.179081	1044.598633
8977.922488	41.124435	44.347401	1041.384155
8977.925819	56.261780	37.100178	1044.364868
8977.929150	70.756226	29.619175	1045.709106
8977.932480	84.958450	21.962831	1043.488281
8977.935811	99.160667	13.780481	1043.137573
8977.939147	113.246002	6.591703	1038.169678
8977.942492	127.857338	-1.181529	1035.072021
8977.945812	141.884216	-9.422324	1032.442017
8977.949150	155.735779	-17.195557	1026.246826
8977.952478	168.593750	-24.209000	1019.817810
8977.955816	182.328415	-31.456223	1015.375916
8977.959144	193.900589	-38.937229	1008.070251
8977.963824	218.681412	-52.905666	993.342102
8977.966734	230.019821	-59.743771	983.172546
8977.970072	242.351776	-65.822090	975.399231
8977.973329	252.696625	-72.017303	966.048035
8977.976661	263.333679	-78.387848	957.339722
8977.979620	272.684937	-84.115486	945.825928
8977.982895	283.029755	-89.784691	935.188904
8977.986250	291.855011	-94.694099	924.201172
8977.989563	300.738708	-99.837288	913.797913
8977.992923	309.154846	-105.331146	899.537231
8977.995803	317.570953	-109.246994	890.712036
8977.999137	324.058411	-114.214851	876.626648
8978.002478	332.649872	-117.838455	862.716614
8978.005821	338.903503	-121.111397	850.618530
8978.009140	346.618317	-124.910347	839.455383
8978.012471	351.819946	-129.176849	825.077881
8978.015807	358.541138	-131.806900	813.271851
8978.019144	363.099884	-135.372070	799.011169
8978.022511	369.236633	-137.592987	785.685669
8978.025807	373.327820	-141.158157	769.788513
8978.029141	379.113922	-143.437515	758.391724
8978.032474	381.743958	-146.418243	743.955688
8978.035805	386.594940	-148.814484	731.097778
8978.039136	389.984741	-150.158737	715.083679
8978.042473	393.725250	-151.853653	701.816589
8978.045805	396.939728	-154.249908	687.789734
8978.049135	399.745117	-156.353943	673.821289
8978.052476	400.563385	-158.107300	661.255493
8978.055803	402.842712	-159.509995	646.001282
8978.059136	404.654541	-160.503571	633.260193
8978.062471	405.005219	-162.607605	619.174866
8978.065819	407.810577	-163.308945	606.433777
8978.069134	408.453491	-164.711639	593.400513
8978.072472	408.687256	-165.646759	579.198242
8978.075804	409.447052	-165.412979	564.879150
8978.079984	408.862610	-167.458557	540.507446
8978.083318	408.161255	-168.569031	528.292297
8978.086653	406.466339	-169.971725	514.791504
8978.090018	404.771423	-169.211929	502.868622
8978.093340	403.660950	-170.789948	489.660004
8978.096254	403.660950	-170.205505	479.256683
8978.099576	401.849152	-169.796371	467.626068
8978.102945	400.212677	-170.848389	457.339691
8978.106225	398.050201	-170.147049	446.761108
8978.109162	397.115082	-170.673065	434.955170
8978.112460	394.835724	-170.380829	426.188354
8978.115802	392.673248	-170.322388	414.382385
8978.119131	391.153656	-170.556168	405.031158
8978.122462	389.341858	-169.504150	396.731903
8978.125796	386.653351	-169.562592	386.854645
8978.129135	384.081787	-168.685913	377.620270
8978.132461	381.393280	-168.393692	368.619659
8978.135792	379.815247	-167.400131	360.261993
8978.139126	377.477448	-166.581879	351.553619
8978.142464	375.431854	-165.763641	344.832397
8978.145797	371.340698	-164.945419	335.773376
8978.149124	370.288666	-164.127167	328.993744
8978.152468	367.074158	-163.308945	321.220520
8978.155789	365.963715	-162.198486	314.382385
8978.159124	361.580322	-161.789352	306.901367
8978.162460	360.411407	-160.152893	299.654175
8978.165799	357.547577	-159.509995	292.231598
8978.169124	354.333069	-158.282639	286.036377
8978.172455	351.586151	-158.107300	279.724304
8978.175791	349.014557	-157.289062	273.412201
8978.179128	346.442963	-155.886383	267.216980
8978.182463	343.929810	-154.659042	261.313995
8978.185790	341.825775	-153.607010	255.001923
8978.189126	338.611267	-153.197891	249.274261
8978.193327	334.637024	-150.041840	238.812561
8978.196692	331.890076	-149.983414	231.857544
8978.200050	328.850891	-148.522278	227.474152
8978.203384	325.461090	-148.230042	221.921844
8978.206725	322.597260	-147.178024	217.421539
8978.209551	320.610107	-146.067566	211.577026
8978.212876	318.447662	-145.541550	207.894958
8978.216209	315.116241	-144.781769	202.517975
8978.219557	312.427765	-143.846649	198.134583
8978.222871	309.856171	-143.028412	193.984955
