time (s)	magX	magY	magZ
8104.876463	290.569183	48.204792	1133.961548
8104.879801	301.264709	42.009586	1129.052124
8104.883130	310.791290	35.755932	1119.233398
8104.886498	321.136139	29.560730	1112.804443
8104.889794	329.961395	23.599300	1107.193726
8104.893128	339.546417	17.462540	1100.472412
8104.896464	347.904083	12.027121	1092.699219
8104.899798	356.320221	6.124140	1085.685791
8104.903129	364.794800	0.162714	1078.321655
8104.906462	373.327820	-6.441611	1068.035278
8104.909799	380.925720	-11.234130	1059.619141
8104.913126	389.692535	-16.552658	1049.975586
8104.916456	396.296844	-22.572529	1041.618042
8104.919791	404.654541	-28.066391	1033.260254
8104.923128	411.083527	-32.917355	1024.961060
8104.926464	418.564514	-37.709877	1012.687439
8104.929813	423.824615	-42.619282	1001.875061
8104.933121	430.662750	-47.119576	993.751160
8104.936513	434.286316	-51.912094	983.873840
8104.941067	445.916962	-60.795788	964.411621
8104.943983	450.592590	-65.179192	950.735352
8104.947313	456.203339	-69.095039	942.611450
8104.950666	461.697205	-73.361542	930.104126
8104.954014	465.262390	-76.868271	920.636047
8104.957390	468.944427	-80.608772	912.102966
8104.960242	473.210907	-83.764816	898.894348
8104.963613	474.964294	-86.687088	888.607910
8104.966891	478.587921	-90.661369	878.496887
8104.970217	481.860840	-93.992752	867.859924
8104.973144	483.964874	-96.389015	857.456543
8104.976454	487.880707	-98.960609	847.696167
8104.979785	490.276978	-101.532204	835.890259
8104.983124	491.738098	-104.279137	827.707947
8104.986455	493.549927	-106.967621	818.473511
8104.989787	495.303253	-109.656113	805.966248
8104.993114	497.056641	-111.643242	797.082581
8104.996448	498.342438	-113.922623	787.906616
8104.999787	498.985352	-116.201988	776.977295
8105.003118	499.336029	-118.539803	766.866272
8105.006450	502.024475	-120.351601	757.105896
8105.009781	501.673798	-123.040092	748.455933
8105.013114	502.550507	-124.559677	740.098267
8105.016472	505.414307	-126.722145	729.636597
8105.019797	506.524780	-128.124832	719.934631
8105.023122	506.583221	-129.761307	710.115845
8105.026450	507.635223	-131.865341	699.712585
8105.029784	506.583221	-133.209595	691.062622
8105.033116	506.583221	-134.787613	681.886719
8105.036444	506.174103	-137.125427	672.477051
8105.039785	505.589630	-138.352783	663.885559
8105.043109	505.238983	-140.047699	655.469421
8105.046448	503.719391	-141.450378	645.767517
8105.049780	503.427185	-142.385513	636.883850
8105.053107	505.238983	-144.138870	629.227478
8105.057811	502.492065	-146.242889	612.512146
8105.060755	500.621796	-147.704025	602.810181
8105.064043	501.030945	-147.937820	595.972046
8105.067381	498.108643	-149.048264	587.439087
8105.070631	498.693085	-150.450974	580.191833
8105.073957	496.413727	-151.269196	572.126343
8105.076872	496.296844	-152.028992	563.593323
8105.080208	494.251251	-152.788788	556.404541
8105.083526	493.199280	-153.373230	550.092468
8105.086864	492.673218	-153.723907	543.955688
8105.089778	490.452301	-155.535706	535.714905
8105.093109	489.809418	-155.243484	530.454834
8105.096441	488.056061	-155.711044	524.902527
8105.099774	486.770264	-156.529282	516.603271
8105.103121	486.244263	-156.470840	513.388794
8105.106495	484.315552	-157.113739	505.732452
8105.109771	482.620636	-157.522842	500.063263
8105.113106	481.743958	-158.691772	493.692719
8105.116434	479.756805	-158.574875	489.309357
8105.119772	478.295685	-158.808655	484.107697
8105.123108	478.061890	-158.691772	478.029388
8105.126440	475.490295	-159.743774	473.470612
8105.129772	474.438293	-159.743774	469.262604
8105.133104	471.983582	-159.393112	463.885590
8105.136435	470.931549	-160.269791	459.619110
8105.139773	469.412018	-160.269791	454.651245
8105.143108	468.359955	-160.678909	449.917175
8105.146476	467.015717	-161.263367	445.884460
8105.149769	465.145447	-161.088013	440.799713
8105.153104	463.625916	-161.321793	436.182495
8105.156434	463.509003	-161.438690	432.149780
8105.159769	461.112762	-161.029587	428.643066
8105.163097	460.411407	-162.081589	423.967438
8105.166434	458.015106	-161.555573	420.460693
8105.169766	457.898254	-161.497147	416.077301
8105.174030	454.566864	-161.906250	407.778046
8105.177282	453.982422	-162.841385	404.738892
8105.180600	453.164154	-162.315369	401.758179
8105.183944	451.410828	-163.075165	397.959229
8105.187300	450.300385	-162.958267	393.283600
8105.190219	449.423645	-162.782928	391.471802
8105.193551	449.014587	-163.542725	388.724884
8105.196875	447.027405	-163.192047	385.042786
8105.200217	444.923370	-164.185623	382.237427
8105.203532	445.624756	-163.425827	379.607391
8105.206428	442.293335	-164.360962	375.457794
8105.209764	442.468658	-164.127167	372.301697
8105.213103	441.475128	-164.185623	370.782166
8105.216429	439.312622	-165.062302	369.730133
8105.219768	438.319061	-165.120743	366.807892
8105.223095	437.383942	-164.945419	363.534912
8105.226429	437.442352	-164.653183	362.190674
8105.229759	435.981232	-164.945419	360.612671
8105.233113	435.396790	-164.828522	359.034637
8105.236428	434.812317	-165.822098	358.274841
8105.239764	432.532990	-165.880539	354.943451
8105.243091	433.058990	-165.412979	354.066803
8105.246423	432.416077	-166.114319	353.014740
8105.249762	431.480957	-165.938980	352.605652
8105.253093	429.961365	-165.705200	350.501617
8105.256425	429.844482	-166.464981	349.741821
8105.259761	429.902954	-166.874115	349.391174
8105.263110	427.740448	-166.874115	347.930023
8105.266465	427.681976	-167.400131	346.001312
8105.269762	426.337769	-167.224777	347.871582
8105.273095	428.266449	-166.348099	346.644226
8105.276428	425.870178	-167.400131	345.942871
8105.279758	425.987091	-168.043015	345.358429
8105.283097	426.220856	-167.809235	345.825989
8105.286421	425.402618	-167.283234	344.598633
8105.290599	424.759735	-168.452133	343.371277
8105.293958	425.519531	-169.328812	343.195953
8105.297287	425.227295	-168.335251	342.669922
8105.300732	425.051971	-168.335251	343.605042
8105.303559	424.116852	-168.569031	342.553070
8105.306900	425.987091	-169.387253	342.903717
8105.310188	424.701294	-169.737930	343.605042
8105.313520	424.993530	-169.445709	343.020630
8105.316853	424.058411	-170.497711	344.189514
8105.319789	424.058411	-170.205505	342.962158
8105.323085	425.344177	-170.322388	345.124634
8105.326413	424.467499	-171.199066	343.955750
8105.329753	425.110413	-171.608185	343.955750
8105.333088	425.753296	-171.023727	345.650665
8105.336415	425.694855	-171.900406	345.942871
8105.339752	426.396210	-171.666626	348.222260
8105.343086	425.344177	-172.192642	347.345581
8105.346418	425.811768	-172.367966	348.280701
8105.349750	425.811768	-173.069305	349.157379
8105.353078	426.805328	-173.595322	349.332703
8105.356415	427.740448	-173.770660	351.495209
8105.359747	427.623566	-174.472000	353.482330
8105.363102	426.279327	-175.231796	354.475922
8105.366415	428.909363	-174.530441	355.820129
8105.369752	428.558685	-175.582474	356.755280
8105.373082	429.318481	-176.283813	359.268402
8105.376415	428.091095	-176.225372	360.729553
8105.379748	429.143158	-177.628052	362.775116
8105.383082	429.143158	-177.861832	364.645386
8105.386413	431.948517	-177.569611	367.275421
8105.389749	430.604279	-177.803391	370.139252
8105.393079	434.227844	-178.796967	372.769287
8105.396414	433.175873	-179.381424	374.990204
8105.399746	434.052521	-178.972290	376.918915
8105.404456	437.617706	-179.790543	383.289459
8105.407377	437.033295	-180.433426	386.854645
8105.410661	437.851501	-182.362137	389.075562
8105.413948	437.676147	-181.894562	392.991394
8105.417284	439.546417	-182.069901	394.335632
8105.420595	441.884247	-183.647919	397.725464
8105.423539	441.533539	-183.823273	401.758179
8105.426835	442.585571	-184.524612	406.200012
8105.430176	443.812897	-184.349258	407.602722
8105.433526	444.338898	-185.459732	412.979675
8105.436410	444.923370	-185.810394	416.018860
8105.439742	445.916962	-186.336411	419.817810
8105.443075	448.780792	-186.102631	423.558319
8105.446412	449.832794	-186.570190	429.753540
8105.449757	450.300385	-187.154648	433.377106
8105.453074	451.177032	-188.966461	436.650085
8105.456406	451.878357	-189.024902	440.682770
8105.459739	454.274628	-188.382004	445.007751
8105.463076	453.164154	-190.076920	448.982025
8105.466404	455.326660	-190.369141	453.599213
8105.469736	455.618866	-190.602921	457.456635
8105.473072	458.015106	-191.070480	461.547821
8105.476406	458.541168	-191.479599	466.632538
8105.479733	458.190491	-192.064056	472.827728
8105.483069	460.236084	-191.654938	477.094269
8105.486401	461.580292	-192.940735	481.652985
8105.489734	462.281677	-193.349854	487.614410
8105.493074	465.671509	-193.466751	492.114716
8105.496401	465.905243	-194.168091	497.725494
8105.499734	465.437714	-194.460312	504.563568
8105.503065	465.963715	-194.226532	509.472992
8105.506394	468.243073	-195.863007	516.252625
8105.509732	468.535278	-195.512329	521.921814
8105.513133	469.236664	-195.979889	528.818359
8105.516399	471.282257	-195.921448	535.364258
8105.521004	474.321381	-197.090347	547.287109
8105.523946	474.029175	-198.083923	555.411011
8105.527263	474.321381	-197.791702	562.599731
8105.530609	475.198090	-198.376160	568.794983
8105.533995	476.425415	-198.376160	576.743591
8105.537326	475.899414	-198.200821	583.523254
8105.540182	479.581451	-197.850143	592.523743
8105.543496	478.763245	-197.674820	600.530823
8105.546824	479.230804	-198.200821	607.719543
8105.550154	479.347717	-198.668381	616.369507
8105.553514	481.217957	-197.908600	624.084290
8105.556399	480.165924	-198.609940	631.857483
8105.559726	480.984161	-197.908600	642.202332
8105.563057	480.691925	-198.259262	648.806702
8105.566420	481.802368	-197.967041	659.443726
8105.569727	480.925720	-198.493042	666.515564
8105.573057	482.912872	-197.382584	676.568237
8105.576394	482.328430	-197.207245	685.218140
8105.579723	482.269958	-196.330566	694.744751
8105.583055	481.627045	-196.330566	702.693298
8105.586391	481.101044	-196.096786	710.349609
8105.589723	479.347717	-196.096786	720.811340
8105.593109	480.224396	-195.161667	731.448425
8105.596387	479.464600	-194.343430	737.234497
8105.599728	479.289246	-194.694107	748.455933
8105.603052	477.477478	-193.174515	757.339722
8105.606388	476.016296	-193.232971	766.340332
8105.609738	476.659210	-192.122498	775.808411
8105.613054	472.918701	-191.070480	786.796143
8105.616393	473.503174	-189.609344	796.322754
8105.619730	471.223785	-188.791122	806.024719
8105.623053	469.587341	-187.739105	815.843445
8105.626392	469.821075	-186.570190	825.487000
8105.629719	467.307953	-186.219528	835.714844
8105.633049	466.255920	-184.933731	845.767578
8105.636392	462.281677	-183.940155	856.579956
8105.640666	459.067169	-180.491882	875.866821
8105.643990	453.982422	-178.504730	887.672852
8105.647309	452.696625	-176.342255	897.257874
8105.650573	449.423645	-175.173340	907.485840
8105.653924	446.910522	-173.478439	919.876221
8105.656802	441.825775	-171.725067	929.227478
8105.660143	439.020416	-169.504150	937.409851
8105.663474	435.864380	-166.757217	952.254944
8105.666807	431.480957	-165.529861	960.846375
8105.670180	425.753296	-162.899826	969.554749
8105.673052	422.947906	-160.562012	981.185364
8105.676388	417.044922	-158.107300	992.582336
8105.679779	413.655121	-155.068146	1002.810120
8105.683077	408.044373	-152.496552	1012.161438
8105.686389	402.199829	-149.983414	1021.395813
8105.689714	397.465759	-146.827347	1035.188965
8105.693052	391.328979	-143.846649	1041.559570
8105.696389	385.250671	-141.158157	1051.845825
8105.699714	378.938568	-137.476105	1061.898560
8105.703045	371.399139	-134.436951	1071.249756
8105.706386	366.548157	-130.637985	1082.763550
8105.709712	358.424255	-127.306610	1089.952271
8105.713052	352.053711	-123.858337	1096.088989
8105.716384	345.332489	-119.650261	1105.148071
8105.719714	337.383911	-116.026657	1115.609741
8105.723046	331.539398	-111.760139	1123.207642
8105.726397	322.188141	-108.370308	1131.156250
8105.729716	315.759155	-104.396027	1139.747681
8105.733048	308.570374	-100.129517	1146.878052
8105.736379	299.862000	-96.155235	1154.300659
8105.739707	292.147217	-92.005615	1160.320435
8105.743065	282.620636	-87.797546	1167.684570
8105.746382	275.841003	-82.829689	1174.055176
8105.749709	267.015747	-79.089188	1176.918945
8105.753043	258.833374	-74.238228	1185.393555
8105.757672	240.423096	-65.003853	1195.855225
8105.760559	231.831635	-59.802219	1201.407593
8105.763918	222.597260	-55.301926	1205.498657
8105.767245	213.012222	-50.334072	1209.765259
8105.770211	202.608948	-45.424664	1212.161499
8105.773499	193.549911	-39.930798	1218.824341
8105.776825	183.029755	-35.313614	1222.623169
8105.780135	173.210937	-30.111979	1226.597534
8105.783485	162.690765	-24.325890	1227.065063
8105.786787	152.638184	-18.890471	1228.876953
8105.789706	142.001114	-13.396607	1233.786377
8105.793037	131.597839	-8.136526	1235.714966
8105.796373	121.311462	-1.882873	1234.662964
8105.799707	110.440620	2.851200	1235.831909
8105.803035	99.511345	9.221745	1239.981445
8105.806371	88.757401	15.066280	1235.714966
8105.809702	77.886566	20.618587	1240.039917
8105.813039	67.366402	25.937115	1238.637329
8105.816372	56.261780	31.021862	1236.766968
8105.819699	45.157166	37.450851	1236.299438
8105.823035	34.578556	42.769379	1238.052734
8105.826373	23.006374	49.198368	1236.007202
8105.829702	12.077094	53.990883	1231.682251
8105.833054	1.498486	59.952312	1230.688721
8105.836367	-9.547688	65.913734	1226.597534
8105.839700	-19.249615	71.115372	1226.071533
8105.843038	-29.769779	76.784569	1221.921875
8105.846373	-40.640617	81.693977	1218.298218
8105.849715	-51.102333	86.954063	1214.966919
8105.853032	-61.213379	92.740150	1209.999023
8105.856364	-71.675095	98.000237	1206.492310
8105.859695	-81.084801	103.669426	1201.582886
8105.863028	-90.728287	108.637283	1197.257935
8105.866362	-100.663994	113.546692	1192.173218
8105.869697	-110.482819	119.449677	1188.315796
8105.873913	-129.302216	128.976273	1175.691650
8105.877279	-137.718338	133.242783	1169.262573
8105.880629	-147.244949	138.152191	1163.359619
8105.883918	-155.193512	143.470718	1158.567017
8105.887223	-164.661652	148.263245	1150.501709
8105.890133	-173.077789	152.295975	1145.066162
8105.893470	-181.435486	157.439163	1136.007202
8105.896784	-188.448914	161.471893	1128.643066
8105.900115	-198.092407	165.855286	1122.038818
8105.903450	-205.514969	170.180252	1117.012451
8105.906364	-212.353073	174.037628	1108.304199
8105.909694	-220.360077	177.895035	1101.875122
8105.913028	-227.665741	182.629105	1093.049805
8105.916360	-234.562286	186.428055	1083.406372
8105.919737	-242.160187	190.110107	1076.042236
8105.923038	-246.952698	193.733719	1069.613281
8105.926362	-255.310394	198.117126	1061.606201
8105.929694	-261.447144	201.565399	1052.255005
8105.933025	-268.869720	204.604568	1042.669922
8105.936357	-276.058502	208.052841	1031.448486
8105.939693	-282.019928	210.916641	1024.551880
8105.943032	-288.273590	214.949387	1014.966858
8105.946363	-294.235016	217.988541	1004.855774
8105.949686	-300.605560	221.553711	998.309875
8105.953029	-304.521393	224.242203	989.017029
8105.956355	-310.482819	227.106003	979.490540
8105.959691	-315.216888	230.145172	970.431458
8105.963017	-321.236755	231.372528	963.067322
8105.966357	-325.737061	234.236343	951.553589
8105.969683	-329.302216	236.983292	944.189514
8105.973017	-334.854523	239.554871	936.007141
8105.976357	-339.413269	241.425125	926.889648
8105.979688	-344.439575	242.594040	917.187744
8105.983023	-348.647644	245.457855	908.304077
8105.986383	-350.927002	247.561890	897.082581
8105.990989	-358.349548	250.717941	881.477600
8105.993869	-362.732941	252.354416	871.892578
8105.997204	-366.356567	253.698654	863.242676
8106.000582	-368.519043	256.094940	854.125183
8106.003887	-370.506165	257.965179	846.176575
8106.006836	-374.363586	259.017212	839.397034
8106.010135	-376.935181	259.484772	829.811890
8106.013466	-379.389893	261.822571	821.804932
8106.016771	-381.435486	262.465485	814.440796
8106.020113	-383.656403	263.634369	805.557129
8106.023012	-384.649994	264.920197	800.355469
8106.026344	-387.163116	265.621521	789.776855
8106.029680	-389.325623	267.550201	782.588074
8106.033050	-390.845184	267.141113	775.516174
8106.036350	-391.663391	269.011353	764.294678
8106.039678	-395.228577	269.069794	759.852844
8106.043014	-395.520813	271.173828	750.384644
8106.046345	-398.150848	270.472473	743.663452
8106.049676	-399.787323	271.232269	736.766907
8106.053013	-400.722443	272.167389	730.221008
8106.056347	-400.430176	273.044098	722.973816
8106.059678	-401.716034	273.160980	713.505676
8106.063011	-402.300446	274.505219	707.719543
8106.066342	-404.521393	274.388306	702.108826
8106.069678	-403.703156	274.739014	692.932922
8106.073012	-405.456543	275.323425	687.848145
8106.076372	-406.859192	275.031219	678.730713
8106.079680	-408.378784	275.732574	672.652405
8106.083014	-407.151459	275.907898	665.755798
8106.086341	-409.021698	275.323425	660.028198
8106.089678	-407.911194	275.674133	653.891418
8106.093013	-410.190582	275.557220	647.170227
8106.096342	-411.008820	275.732574	640.390564
8106.099674	-411.067291	275.732574	635.013611
8106.103011	-409.723022	275.907898	628.467712
8106.107687	-412.119293	276.492371	616.135681
8106.110532	-410.891937	275.323425	611.226318
8106.113923	-411.476349	275.323425	605.206421
8106.117271	-411.067291	275.206573	599.361877
8106.120567	-410.658142	276.200134	593.809631
8106.123859	-411.242615	275.732574	587.965088
8106.126780	-412.528412	276.492371	584.458374
8106.130099	-411.417938	275.265015	579.607361
8106.133430	-412.353088	274.855865	574.873291
8106.136765	-411.067291	275.440338	571.249695
8106.140094	-409.606110	275.674133	564.470032
8106.143007	-409.489227	275.907898	560.261963
8106.146337	-410.716614	274.855865	557.573486
8106.149672	-408.378784	275.791016	551.261414
8106.153004	-409.547699	274.680542	548.514465
8106.156378	-409.723022	274.797455	543.488098
8106.159670	-408.612579	274.622101	538.637146
8106.163040	-408.729431	274.271454	536.708496
8106.166337	-407.151459	274.972778	532.383545
8106.169671	-407.209869	275.148102	528.993713
8106.173003	-406.742310	273.745422	524.727234
8106.176331	-404.813599	273.979218	521.220459
8106.179672	-406.099396	273.686981	518.298218
8106.183004	-404.755157	274.271454	515.785034
8106.186335	-404.521393	273.628540	511.869232
8106.189661	-404.521393	273.453186	508.830048
8106.193004	-403.118683	273.920746	504.972687
8106.196333	-402.300446	273.453186	502.459503
8106.199662	-402.709564	273.336304	499.128143
8106.203001	-403.177155	272.108948	496.731903
8106.206358	-403.060242	272.751862	492.699188
8106.209666	-401.832916	271.875183	490.069122
8106.212998	-401.189972	271.699829	487.322174
8106.216335	-401.131561	271.641388	484.809052
8106.219665	-401.248444	272.108948	482.763458
8106.222991	-399.962646	271.524506	479.899628
8106.227184	-400.547119	271.524506	475.165558
8106.230531	-398.676849	270.940033	472.769318
8106.233833	-398.033936	271.816742	472.009491
8106.237199	-397.507935	271.933624	468.269012
8106.240611	-398.092407	270.706268	465.989655
8106.243438	-396.397491	270.764709	463.768707
8106.246784	-397.391083	269.946472	462.424469
8106.250127	-397.274139	270.764709	460.904877
8106.253419	-395.345490	271.173828	458.859283
8106.256755	-396.339020	269.888031	457.982635
8106.259661	-396.455933	270.414032	457.164368
8106.262991	-395.929901	270.121826	452.722534
8106.266322	-395.520813	270.297150	453.423859
8106.269659	-395.520813	270.414032	452.547211
8106.272990	-394.819427	271.173828	449.566498
8106.276322	-394.176575	270.940033	450.267822
8106.279657	-394.585693	270.881592	448.689819
8106.282996	-393.825897	271.173828	448.572906
8106.286320	-392.715454	270.706268	448.456024
8106.289653	-393.825897	271.524506	448.163788
8106.292989	-391.955658	272.693420	447.228668
8106.296323	-391.429596	271.816742	446.235107
8106.299653	-392.832306	272.050507	446.118195
8106.302991	-391.663391	272.810303	444.715546
8106.306323	-390.260742	272.868744	444.949341
8106.309648	-391.429596	271.875183	445.007751
8106.312984	-391.254272	273.394745	444.131073
8106.316320	-391.020538	273.745422	445.007751
8106.319655	-388.974945	273.570099	445.825989
