time (s)	magX	magY	magZ
9063.720567	354.157745	-156.821503	275.516235
9063.725274	357.021576	-157.698196	282.237457
9063.728200	358.541138	-157.639740	286.445526
9063.731496	359.943817	-157.581299	290.127563
9063.734754	361.814087	-158.282639	293.926514
9063.738081	362.866089	-159.159332	298.719025
9063.741415	365.087006	-159.042435	303.453094
9063.744322	367.833954	-159.509995	308.946991
9063.747667	369.002869	-159.860672	313.505707
9063.751015	370.230225	-160.678909	318.181335
9063.754339	371.691345	-160.912689	323.324524
9063.757236	373.795380	-160.795792	328.292389
9063.760566	375.665619	-161.321793	334.020020
9063.763909	376.951447	-162.256927	338.987885
9063.767241	378.587891	-162.198486	342.962158
9063.770587	381.568604	-162.724487	349.741821
9063.773894	383.088196	-162.490707	356.287720
9063.777234	384.023315	-163.308945	361.372467
9063.780564	386.185791	-163.425827	367.275421
9063.783902	388.289856	-163.776505	373.470642
9063.787225	391.212097	-163.776505	379.139832
9063.790560	391.738129	-164.536301	386.270172
9063.793894	393.082336	-164.068741	392.465393
9063.797229	394.952606	-163.659607	400.413940
9063.800566	397.173523	-164.185623	407.602722
9063.803891	398.693085	-164.302521	413.447266
9063.807228	399.803589	-164.536301	421.278931
9063.810556	400.738708	-164.360962	428.643066
9063.813915	401.849152	-164.302521	435.890289
9063.817225	405.180542	-163.718063	442.669952
9063.820556	404.946777	-164.302521	449.624969
9063.823895	406.933899	-163.367386	457.865753
9063.827226	407.635254	-163.075165	466.749420
9063.830556	409.914612	-161.906250	472.944611
9063.833914	410.265289	-161.497147	482.354340
9063.837222	412.661530	-160.503571	489.893829
9063.841410	413.070679	-160.036011	507.544281
9063.844740	415.174683	-158.457993	515.785034
9063.848070	416.694275	-157.815079	525.428528
9063.851434	416.460510	-156.821503	532.909546
9063.854763	416.752747	-156.003281	541.910156
9063.857707	418.447662	-155.185028	551.495178
9063.861005	418.681427	-154.249908	560.963318
9063.864341	419.558105	-152.613434	571.717285
9063.867647	419.616547	-152.204330	580.074951
9063.870975	418.272278	-151.152313	589.835327
9063.873885	418.739868	-149.808060	598.777466
9063.877221	418.622986	-147.937820	610.875671
9063.880550	417.570953	-147.411804	617.713745
9063.883883	417.570953	-145.366211	628.526123
9063.887221	416.226715	-144.314209	637.702026
9063.890549	416.051361	-142.853073	647.988403
9063.893882	415.934479	-140.865921	658.099487
9063.897215	413.479797	-139.521683	667.100037
9063.900571	412.778442	-137.768326	679.315125
9063.903885	410.323730	-135.839630	689.893799
9063.907220	409.563934	-133.910934	701.641296
9063.910547	406.466339	-132.157562	710.875671
9063.913877	403.485626	-129.644409	719.993103
9063.917216	400.914032	-127.540390	733.727722
9063.920569	399.686676	-125.144127	743.605042
9063.923886	395.595520	-122.630981	753.014709
9063.927221	393.666809	-119.708710	765.112915
9063.930584	390.510773	-117.254013	774.873291
9063.933883	386.068909	-113.864174	785.451965
9063.937208	383.263519	-111.000351	795.562988
9063.940549	378.763245	-107.318298	806.492187
9063.943885	374.847412	-103.694679	816.252563
9063.947213	369.528870	-100.713974	826.071411
9063.950545	366.723511	-97.265694	836.357849
9063.955248	355.911102	-88.674225	854.359009
9063.958085	351.410797	-85.401291	863.417969
9063.961514	345.916962	-80.550323	874.697937
9063.964823	340.423096	-76.400696	882.821899
9063.968070	334.403229	-72.251083	891.121033
9063.971403	328.032684	-67.926132	898.894348
9063.974329	322.421906	-62.023144	909.589844
9063.977633	315.116241	-57.815075	917.070801
9063.980965	308.745697	-52.145878	925.954468
9063.984299	301.206268	-47.528694	931.857544
9063.987207	294.601929	-42.385502	943.195862
9063.990545	285.952026	-37.183868	948.397583
9063.993875	278.237244	-31.514668	952.839417
9063.997210	271.632904	-26.079250	961.723083
9064.000540	263.567444	-20.936058	969.321045
9064.003928	254.508408	-15.442195	974.113464
9064.007213	245.566284	-9.948332	978.321594
9064.010537	237.676147	-4.279133	983.698547
9064.013875	227.565109	1.974520	990.185974
9064.017213	219.207428	7.351493	995.621399
9064.020534	208.921051	12.728466	999.069641
9064.023870	199.511353	18.397665	1003.219299
9064.027207	189.750977	24.534426	1006.959778
9064.030535	178.646347	30.671188	1011.927673
9064.033866	169.528870	35.755932	1012.102966
9064.037207	158.482712	41.249798	1017.246155
9064.040541	149.014557	47.211224	1019.467102
9064.043871	137.208588	53.231098	1020.986755
9064.047221	127.448227	59.835419	1022.506287
9064.050531	116.518936	64.744827	1023.850525
9064.053864	106.057220	70.355583	1026.071533
9064.057200	95.011047	76.784569	1024.435059
9064.060537	84.140213	82.453766	1025.370117
9064.063866	73.678497	88.356750	1024.435059
9064.067198	63.333668	94.435066	1022.915466
9064.071414	41.767334	106.474815	1017.012390
9064.074709	31.305614	112.260902	1014.791443
9064.078052	19.967216	118.105431	1011.343201
9064.081407	9.505497	124.417526	1009.589783
9064.084779	-1.190001	129.911392	1005.206482
9064.087648	-11.242603	136.223495	1000.414001
9064.090999	-21.353649	141.717361	998.602112
9064.094315	-31.230915	147.620346	994.627869
9064.097674	-41.225067	153.698654	987.380554
9064.100957	-51.336113	158.666519	982.295837
9064.103866	-60.862709	164.511047	976.626648
9064.107198	-70.739975	170.355576	970.782166
9064.110533	-80.617241	174.738983	965.463623
9064.113866	-89.150261	180.291290	960.203491
9064.117194	-98.267731	184.499359	951.962708
9064.120534	-108.203445	189.817886	946.877991
9064.123858	-116.502686	194.961075	938.169617
9064.127229	-125.327927	199.402908	930.045776
9064.130524	-133.860962	203.084976	922.623108
9064.133875	-141.692627	207.935944	915.375977
9064.137195	-150.634766	211.559540	907.719543
9064.140526	-158.992462	216.001404	898.309875
9064.143862	-166.707245	219.157440	890.828857
9064.147189	-174.597366	223.599304	882.003662
9064.150527	-182.136810	225.761780	874.055054
9064.153859	-190.026947	229.560715	865.171387
9064.157261	-196.631256	232.716782	854.651245
9064.160539	-203.936920	236.048157	845.533691
9064.163858	-210.891922	236.749496	836.533142
9064.167192	-216.794907	240.489990	827.415710
9064.170563	-223.165451	242.184906	819.174927
9064.173859	-230.821777	244.464294	809.531372
9064.177214	-234.503845	246.276108	800.647705
9064.180524	-241.225067	247.971024	790.887329
9064.185152	-252.388123	251.769958	771.541931
9064.188065	-257.648224	254.107773	761.255493
9064.191403	-263.200500	254.750656	752.897888
9064.194809	-267.291687	257.205383	742.845276
9064.198130	-271.324432	258.257416	734.136902
9064.201374	-277.052094	258.374298	722.973816
9064.204280	-280.558777	259.893860	715.083679
9064.207631	-285.292877	260.536774	704.855774
9064.210948	-287.864471	261.471893	696.381165
9064.214314	-291.137390	262.056366	685.744141
9064.217191	-294.585663	262.699249	678.146240
9064.220516	-297.215698	264.160400	668.152100
9064.223851	-299.436615	265.563080	657.865723
9064.227188	-303.001801	265.446198	649.858643
9064.230517	-305.865631	265.446198	640.799683
9064.233852	-307.209869	266.498199	629.987244
9064.237201	-310.307465	265.972198	620.811340
9064.240521	-312.937500	266.322876	614.616150
9064.243852	-313.112854	266.264404	604.388184
9064.247186	-316.210449	267.491760	595.036926
9064.250517	-317.204041	266.556641	586.094788
9064.253852	-317.613129	267.433350	577.912476
9064.257210	-319.191193	266.322876	569.730103
9064.260511	-319.834076	266.381317	560.320374
9064.263849	-321.879669	266.322876	552.956299
9064.267186	-323.925232	265.212402	545.124634
9064.270517	-323.749908	264.920197	537.877380
9064.273845	-324.392822	264.861725	528.526123
9064.277181	-325.737061	263.692841	520.635986
9064.280514	-327.431946	263.225281	513.271912
9064.283845	-326.789062	262.757721	505.790924
9064.287174	-328.133301	260.887451	498.426788
9064.290514	-328.133301	259.776978	491.121124
9064.293845	-328.191742	260.069214	483.055695
9064.297179	-329.126862	258.783417	476.334442
9064.301458	-330.529572	256.211823	462.366058
9064.304711	-329.068420	254.458450	455.469452
9064.308038	-329.769775	254.400009	448.280701
9064.311367	-330.354218	251.769958	443.195953
9064.314717	-328.951538	251.536194	435.890289
9064.317603	-330.295776	250.016602	429.344391
9064.320938	-329.419098	248.730789	423.266052
9064.324297	-328.834656	247.971024	417.713776
9064.327629	-327.899506	246.217636	410.992554
9064.330964	-327.899506	245.107178	404.972687
9064.333836	-327.315094	244.347397	399.829468
9064.337172	-328.016418	242.009583	393.984985
9064.340513	-326.379944	241.717346	388.783295
9064.343878	-326.379944	240.782227	383.640137
9064.347171	-326.146149	239.554871	379.899628
9064.350511	-324.451233	237.859970	373.295288
9064.353837	-325.386383	236.340393	369.145660
9064.357176	-324.042145	236.106598	364.119385
9064.360509	-321.704315	234.820801	358.976196
9064.363836	-322.113434	233.535019	353.774536
9064.367166	-321.002960	233.651917	349.508026
9064.370510	-320.009399	231.898529	345.124634
9064.373841	-318.606720	231.723206	340.916565
9064.377166	-317.963837	230.203613	336.240936
9064.380505	-317.320923	228.508698	333.084900
9064.383835	-316.502686	227.865799	329.402832
9064.387196	-316.794922	226.989136	323.675201
9064.390505	-314.340210	226.112442	320.519135
9064.393833	-314.164856	224.943558	316.661743
9064.397194	-313.405060	224.300629	313.447266
9064.400501	-311.125732	223.482407	309.356079
9064.403839	-311.359497	221.027695	306.258484
9064.407170	-311.359497	220.910828	302.050415
9064.410496	-310.599701	219.449677	298.719025
9064.413836	-308.378784	218.982117	295.562988
9064.418019	-306.566956	217.462524	288.666412
9064.421364	-306.450104	215.942963	285.802612
9064.424707	-305.807159	214.598709	283.581696
9064.428101	-305.047394	214.189590	279.958069
9064.430991	-303.878479	212.202469	277.678711
9064.434280	-303.469360	211.267334	275.574677
9064.437593	-303.118683	210.039978	272.418640
9064.440921	-301.306915	209.806183	269.788574
9064.444252	-301.306915	208.695724	267.976776
9064.447581	-300.313324	208.228165	264.586945
9064.450501	-299.962646	207.176147	262.482910
9064.453829	-299.085968	206.942383	260.846436
9064.457163	-299.085968	205.422791	259.969757
9064.460501	-298.910645	204.779892	256.404602
9064.463825	-298.384644	203.610977	255.001923
9064.467161	-296.865051	202.675858	253.307007
9064.470497	-296.865051	201.682297	251.495178
9064.473841	-295.754578	201.506958	249.683380
9064.477162	-294.059662	201.039398	248.456024
9064.480500	-294.702576	199.461380	247.930023
9064.483827	-294.235016	199.987381	244.949310
9064.487159	-294.059662	198.409348	243.663513
9064.490504	-292.423187	198.818481	242.377716
9064.493825	-293.299866	198.058685	240.565918
9064.497155	-292.598541	197.298889	239.046326
9064.500492	-292.189423	196.480667	238.578766
9064.503824	-291.663391	196.772873	237.468292
9064.507158	-291.371185	195.896194	237.176086
9064.510487	-290.728271	196.539108	235.364258
9064.513824	-289.793152	195.487076	235.773376
9064.517189	-289.500946	195.077972	234.487579
9064.520487	-288.565826	194.902634	233.026459
9064.523820	-289.208710	195.136414	232.325104
9064.527154	-288.624237	194.493500	232.266663
9064.531877	-287.513794	193.792160	229.636627
9064.534793	-287.163116	194.318176	230.337952
9064.538077	-286.578674	193.149261	229.519745
9064.541377	-288.098267	193.324600	228.643036
9064.544669	-287.630676	192.798599	228.935272
9064.548010	-287.806030	193.032379	227.591034
9064.550904	-287.513794	192.973938	228.409271
9064.554245	-288.039795	192.623260	228.000153
9064.557575	-287.046234	192.564819	227.707916
9064.560994	-287.572235	192.623260	227.649475
9064.563819	-287.572235	192.214142	227.357269
9064.567154	-287.455322	192.447922	226.480560
9064.570482	-286.520203	191.746582	226.597473
9064.573860	-288.624237	191.337463	227.824829
9064.577152	-287.630676	191.454346	228.292389
9064.580484	-288.156677	191.395920	228.292389
9064.583817	-288.332031	191.805023	227.824829
9064.587151	-288.098267	191.863480	228.233948
9064.590482	-289.559387	190.986786	229.811981
9064.593815	-288.741150	191.162125	230.805542
9064.597147	-290.494507	191.045227	230.630188
9064.600484	-290.202271	191.395920	231.039337
9064.603855	-289.968506	191.629700	231.857544
9064.607148	-290.436066	192.389481	232.208221
9064.610494	-291.195831	192.389481	233.610901
9064.613818	-290.728271	192.681702	234.779816
9064.617145	-292.423187	192.564819	235.188934
9064.620480	-292.189423	191.980362	236.650085
9064.623812	-292.423187	193.383041	237.234497
9064.627142	-294.176575	192.973938	238.520325
9064.630476	-293.884338	193.441498	240.273682
9064.633809	-293.767456	194.551956	240.273682
9064.637208	-294.001221	194.668854	243.488190
9064.640483	-294.994781	195.662415	244.014191
9064.643813	-296.339050	195.311752	246.001312
9064.648476	-296.397491	196.013092	249.332703
9064.651332	-297.391052	196.129974	250.560059
9064.654699	-297.800171	197.883347	251.495178
9064.658051	-299.202850	198.409348	254.066803
9064.661415	-299.495087	199.461380	255.118774
9064.664254	-298.969055	198.701584	257.690399
9064.667599	-300.839355	199.987381	260.145111
9064.670955	-301.190002	200.338043	262.716675
9064.674229	-302.534241	200.980942	264.470062
9064.677571	-303.527832	201.916061	266.106537
9064.680470	-304.813599	202.500519	268.619659
9064.683804	-305.105835	202.617416	270.489929
9064.687138	-305.924072	203.903214	273.645996
9064.690470	-306.976105	204.020111	276.042236
9064.693808	-306.625427	205.188995	277.795593
9064.697143	-309.723022	205.831924	281.185425
9064.700469	-309.313904	206.533249	283.289459
9064.703806	-311.242584	206.942383	287.263733
9064.707142	-311.827057	207.526840	289.776886
9064.710472	-312.353088	208.520401	293.809631
9064.713804	-313.697296	209.338623	296.848785
9064.717134	-313.872650	209.689285	298.076141
9064.720469	-316.678009	209.806183	302.985535
9064.723799	-316.736481	211.208878	307.135162
9064.727158	-318.606720	211.559540	309.706757
9064.730473	-319.541840	211.734894	313.622620
9064.733835	-320.184753	213.488251	317.012421
9064.737139	-321.236755	213.838913	319.993164
9064.740480	-321.704315	213.838913	325.253204
9064.743799	-323.048553	215.183167	328.701508
9064.747131	-325.211029	215.942963	332.734253
9064.750467	-324.860382	217.228760	337.234497
9064.753802	-326.146149	216.994965	341.091919
9064.757129	-327.841064	217.520981	345.592194
9064.760462	-328.367096	219.040573	350.793823
9064.764673	-330.178894	221.027695	358.742401
9064.768007	-332.282928	221.144592	364.528503
9064.771391	-333.101166	222.196609	369.028809
9064.774743	-334.679199	223.891525	373.587555
9064.778025	-334.562286	224.008423	378.029388
9064.780886	-335.789642	225.060425	384.458374
9064.784242	-335.614319	226.989136	389.718414
9064.787557	-337.484558	227.281372	395.212311
9064.790887	-336.724762	228.391830	400.706177
9064.794218	-338.010590	229.560715	406.200012
9064.797133	-337.192322	230.729630	411.752350
9064.800460	-339.121033	230.904968	417.889099
9064.803794	-339.939270	231.781631	425.077911
9064.807130	-340.231506	232.833664	430.922394
9064.810463	-341.809509	233.301224	437.585205
9064.813795	-341.283539	234.470139	442.494629
9064.817128	-342.861542	234.820801	449.391174
9064.820502	-342.277100	235.814362	455.586365
9064.823793	-343.153778	235.931259	464.353180
9064.827141	-343.329102	237.158615	470.314606
9064.830457	-342.277100	236.983292	475.750031
9064.833796	-342.803101	237.333954	483.172577
9064.837127	-344.498016	237.859970	490.828949
9064.840457	-344.848663	238.795105	497.900787
9064.843794	-343.796661	238.911972	505.790924
9064.847123	-343.913544	238.502869	513.213440
9064.850456	-343.562866	238.911972	520.285339
9064.853789	-345.783783	238.795105	527.649475
9064.857126	-344.907135	239.379532	535.481140
9064.860454	-343.679779	239.145767	544.657043
9064.863811	-343.445984	238.385971	552.547180
9064.867125	-341.867950	239.437988	560.671082
9064.870455	-342.803101	238.444412	569.204102
9064.873788	-342.218658	238.093750	578.496887
9064.877117	-339.647034	237.859970	586.620789
9064.881403	-338.069031	237.859970	601.991943
9064.884646	-337.893677	237.684616	611.986145
9064.887989	-336.607880	236.749496	619.934631
9064.891301	-334.328522	235.931259	631.097778
9064.894658	-331.581573	236.048157	638.870972
9064.897542	-330.237366	235.989731	647.696228
9064.900899	-328.074860	234.411682	656.521484
9064.904243	-326.672180	233.242783	664.879150
9064.907604	-324.685028	232.366089	674.581055
9064.910455	-322.113434	231.547867	684.575256
9064.913787	-318.723602	230.495850	694.218689
9064.917116	-315.041565	230.028275	703.920654
9064.920451	-312.002380	228.800919	714.616150
9064.923778	-308.378784	228.333359	722.447815
9064.927114	-306.917664	225.878677	733.669312
9064.930444	-302.008240	224.885086	741.325684
9064.933780	-298.735291	222.956406	751.962708
9064.937113	-295.053223	221.261490	759.151489
9064.940449	-290.494507	219.332779	771.308105
9064.943783	-286.344879	217.988541	780.250305
9064.947115	-280.967926	216.118301	790.419739
9064.950475	-276.584534	213.722031	799.654175
9064.953786	-272.025757	210.390656	807.894958
9064.957114	-266.239685	209.338623	818.005981
9064.960447	-261.330261	206.650146	826.889648
9064.963777	-256.011749	202.909653	837.176086
9064.967108	-250.459442	199.753601	846.235046
9064.970447	-245.900696	197.123566	855.586304
9064.973778	-238.828827	193.909058	864.703796
9064.977135	-232.808929	190.928345	873.821289
9064.980447	-226.964386	187.012497	880.776245
9064.983779	-219.717178	182.219986	891.880859
9064.987112	-213.405075	179.531494	899.420288
9064.990442	-206.976089	175.206543	910.174316
9064.994656	-193.650543	166.439743	925.662292
9064.997956	-185.175980	162.231674	934.195312
9065.001317	-177.344284	157.965164	941.208801
9065.004666	-169.629517	153.581757	949.157410
9065.008030	-162.148499	149.315247	957.631897
9065.010920	-153.907700	143.938278	964.470032
9065.014204	-145.608475	139.028870	971.249695
9065.017555	-136.666336	134.470139	977.678650
9065.020868	-127.607300	129.502289	982.529602
9065.024207	-118.840485	124.300644	988.257263
9065.027108	-109.664566	119.508118	996.790222
9065.030443	-100.254868	114.072701	1004.505066
9065.033771	-90.377609	108.754181	1008.011780
9065.037140	-81.201683	103.084976	1013.213440
9065.040441	-71.441315	98.409355	1017.713684
9065.043772	-61.271820	92.798592	1019.058044
9065.047107	-51.979012	87.538513	1026.129883
9065.050438	-41.692635	82.103096	1031.039307
9065.053763	-31.756920	76.550789	1032.325073
9065.057104	-21.002975	71.758270	1035.714966
9065.060437	-10.541256	66.147514	1037.468384
9065.063785	-0.137985	60.595211	1038.812500
9065.067133	9.739279	54.516895	1040.098389
9065.070432	19.967216	49.256809	1045.533813
9065.073770	31.422506	43.470722	1043.955688
9065.077103	41.182880	38.385975	1046.235107
9065.080435	51.995270	33.067448	1046.059814
9065.083767	62.106316	27.807365	1045.124634
9065.087104	72.042023	22.196613	1045.533813
9065.090437	82.328407	16.235186	1045.124634
9065.093768	92.439453	10.916659	1044.364868
9065.097095	101.615372	5.539687	1042.260864
9065.100438	111.784866	-0.246403	1039.513916
9065.103765	121.662132	-6.324720	1037.994263
9065.108446	141.416656	-17.078665	1033.201782
9065.111399	150.125015	-22.689419	1032.149780
9065.114717	160.528290	-28.358618	1026.539062
9065.118014	169.411987	-33.209583	1022.564758
9065.121283	178.646347	-38.995674	1017.187683
9065.124212	186.653366	-43.671299	1013.739441
9065.127522	195.946182	-48.814491	1007.894958
9065.130856	205.238983	-54.133022	1004.797302
9065.134188	213.655121	-59.919113	997.608582
9065.137517	222.246582	-64.886963	990.828796
9065.140425	230.253586	-69.153481	988.491150
9065.143765	238.260620	-74.004440	981.769836
9065.147100	246.501404	-78.504738	974.230408
9065.150428	253.923981	-82.245239	966.515564
9065.153771	261.930969	-87.446877	961.021790
9065.157158	268.243103	-91.421158	951.845764
9065.160427	276.542297	-95.512329	942.027039
9065.163760	283.146667	-99.895737	936.942261
9065.167091	290.101624	-103.928459	928.409241
9065.170425	296.881317	-107.552078	918.707336
