time (s)	magX	magY	magZ
7086.248424	-347.866760	112.039742	-1054.763306
7086.251766	-337.638794	106.721207	-1064.348267
7086.255088	-327.294006	102.337814	-1080.596191
7086.258417	-316.598480	96.727058	-1091.174805
7086.261755	-304.675629	90.940971	-1101.285889
7086.265086	-293.161896	85.797783	-1110.695435
7086.268423	-281.648163	79.777908	-1120.923462
7086.271751	-268.848633	74.693161	-1133.606079
7086.275084	-257.159576	68.205727	-1143.424927
7086.278416	-244.360016	62.419636	-1150.263062
7086.281771	-230.917603	56.224430	-1159.906494
7086.285086	-217.416718	50.438339	-1169.608398
7086.288421	-204.324966	44.067799	-1177.615479
7086.291753	-190.356522	38.223259	-1186.732910
7086.295087	-176.037415	32.437172	-1193.746338
7086.298416	-161.426071	25.657511	-1201.052002
7086.301754	-147.340744	19.170076	-1205.376953
7086.305086	-133.196960	13.676212	-1212.098267
7086.308414	-117.708946	7.890122	-1217.884277
7086.311748	-103.857399	0.876680	-1220.806519
7086.315085	-88.661598	-5.201637	-1223.553467
7086.318416	-73.290474	-10.870836	-1228.229126
7086.322616	-43.834015	-22.150789	-1231.326660
7086.325983	-29.690239	-27.995323	-1232.729492
7086.329347	-14.786674	-33.489189	-1235.008789
7086.332683	0.292227	-39.333721	-1236.236084
7086.335939	14.786674	-44.418468	-1235.534790
7086.338846	29.047340	-49.386322	-1233.547607
7086.342170	42.606663	-54.880188	-1232.904663
7086.345500	56.282879	-60.257160	-1231.385132
7086.348837	70.485100	-65.751022	-1227.410889
7086.352173	84.395096	-70.485100	-1225.072998
7086.355075	97.019287	-75.745178	-1226.534180
7086.358415	110.461723	-80.479256	-1222.150757
7086.361762	123.611923	-85.271767	-1217.416626
7086.365080	137.112793	-90.122734	-1210.753906
7086.368409	149.327881	-94.447693	-1206.721191
7086.371743	161.776733	-99.123314	-1201.636475
7086.375073	173.874924	-104.208061	-1193.337280
7086.378473	186.674469	-108.708359	-1186.206909
7086.381740	198.071304	-112.916420	-1182.641724
7086.385072	210.403275	-117.825829	-1175.803711
7086.388414	222.676804	-122.150787	-1164.640503
7086.391741	233.372314	-126.358856	-1157.334961
7086.395073	243.249557	-130.800705	-1148.860352
7086.398405	253.945068	-134.833435	-1138.924561
7086.401741	265.283478	-138.398605	-1130.391602
7086.405091	275.219177	-142.489761	-1120.455811
7086.408405	285.622467	-146.171829	-1109.935669
7086.411739	294.564575	-150.029221	-1097.954346
7086.415070	305.143188	-153.419052	-1088.661621
7086.418407	313.968445	-156.633545	-1077.498535
7086.421737	323.027466	-159.322037	-1066.510742
7086.425070	330.976044	-162.828751	-1054.763306
7086.428401	339.684387	-165.517242	-1042.372925
7086.431737	347.866760	-168.673294	-1029.865601
7086.435998	362.478088	-173.816483	-1005.493835
7086.439365	368.381073	-174.926941	-993.746399
7086.442596	374.926941	-177.089417	-981.239014
7086.445915	381.881958	-178.492111	-968.264221
7086.449276	388.194031	-181.063705	-956.049072
7086.452618	393.220337	-182.174164	-942.782043
7086.455493	398.246643	-183.635300	-931.326660
7086.458856	403.272949	-185.096436	-919.170105
7086.462190	407.305664	-186.674469	-906.545898
7086.465543	412.916412	-187.609589	-892.285278
7086.468828	415.721802	-187.901810	-880.537720
7086.471734	420.455872	-189.362946	-870.368164
7086.475071	423.144348	-190.005844	-855.523132
7086.478403	426.709503	-190.882523	-843.950928
7086.481734	429.924011	-191.057861	-831.794250
7086.485063	432.670959	-191.876099	-820.280579
7086.488402	435.885437	-192.694336	-808.357727
7086.491753	437.463470	-193.103439	-797.136169
7086.495063	439.041504	-193.278793	-786.089966
7086.498399	442.197571	-193.687897	-774.693176
7086.501732	443.191101	-193.512573	-762.945679
7086.505069	444.067810	-193.921692	-750.613708
7086.508399	445.236694	-194.272354	-740.677979
7086.511729	447.691406	-194.155472	-728.872009
7086.515062	449.094116	-194.330795	-717.884277
7086.518390	448.860321	-194.798355	-706.779663
7086.521728	450.263031	-194.856812	-695.675049
7086.525072	450.087677	-194.798355	-684.512024
7086.528391	450.905884	-195.090591	-674.284058
7086.531731	452.191681	-194.856812	-663.354797
7086.535080	453.185272	-195.032150	-652.542358
7086.538396	452.893066	-194.623032	-641.203979
7086.541733	452.951477	-194.798355	-630.742249
7086.545054	452.483948	-194.155472	-619.812988
7086.548396	450.730560	-194.097015	-611.279968
7086.553075	450.321442	-193.571014	-590.531860
7086.555936	449.678558	-192.869659	-581.180542
7086.559309	450.146118	-192.577438	-571.829346
7086.562648	449.444763	-192.109879	-561.542969
7086.565953	448.334320	-191.408539	-552.483948
7086.569230	447.399200	-191.174759	-542.840454
7086.572144	445.412018	-190.707184	-535.710083
7086.575484	444.886017	-190.181183	-525.131531
7086.578844	444.126221	-189.947403	-517.533569
7086.582147	443.191101	-188.778503	-509.351257
7086.585056	441.788422	-188.895386	-501.461121
7086.588384	441.262451	-188.427811	-494.623047
7086.591720	439.567505	-187.083572	-485.563995
7086.595053	438.106384	-186.148453	-477.440063
7086.598384	436.002350	-185.797775	-470.835785
7086.601722	437.112793	-184.628876	-463.471649
7086.605049	433.547638	-184.102875	-457.568695
7086.608416	433.547638	-182.758621	-450.964355
7086.611717	432.495605	-182.466400	-444.126221
7086.615054	430.742249	-181.881943	-438.457062
7086.618387	428.755096	-181.414383	-433.196960
7086.621721	428.755096	-180.654587	-428.170685
7086.625053	427.118622	-179.719467	-421.332550
7086.628387	425.715973	-178.258331	-416.014008
7086.631720	423.495056	-178.082993	-409.643494
7086.635051	421.566345	-176.621857	-406.136749
7086.638380	422.033875	-176.154297	-400.233795
7086.641719	419.053162	-176.680298	-395.382812
7086.645049	418.293396	-175.160736	-389.479828
7086.648384	416.949127	-174.810059	-385.037994
7086.651734	416.014008	-173.991821	-380.187042
7086.655050	413.384003	-173.232025	-375.803619
7086.658379	411.221497	-172.355347	-371.069550
7086.661716	411.630615	-172.180008	-366.335480
7086.665062	409.585052	-171.420212	-362.010529
7086.669664	405.552307	-170.017532	-353.185272
7086.672563	404.792511	-170.075974	-348.217407
7086.675905	404.324951	-168.965515	-344.301575
7086.679255	402.454712	-169.374634	-340.444183
7086.682616	400.993591	-168.848618	-336.119232
7086.686002	399.473999	-167.796616	-332.729401
7086.688826	399.240204	-167.504379	-329.047333
7086.692259	397.077728	-166.919937	-324.547058
7086.695502	396.960815	-167.212158	-321.274109
7086.698803	394.798370	-166.452377	-317.825836
7086.701710	393.629456	-165.809464	-315.488037
7086.705038	392.168335	-164.815903	-312.156616
7086.708392	391.525421	-164.699005	-308.883698
7086.711710	390.414948	-163.997665	-306.838104
7086.715047	388.077148	-163.763885	-303.272949
7086.718375	388.310944	-163.004089	-301.227356
7086.721705	386.206879	-162.770309	-299.181763
7086.725038	386.499115	-162.185852	-296.493256
7086.728370	386.148437	-161.542953	-294.097015
7086.731710	385.271759	-161.309174	-292.051422
7086.735035	384.862671	-160.666275	-289.655151
7086.738377	382.700195	-160.374039	-289.304504
7086.741706	381.998840	-159.789597	-286.966675
7086.745035	381.297485	-159.029800	-285.797791
7086.748377	381.297485	-159.380478	-285.271759
7086.751723	381.239044	-159.029800	-283.284637
7086.755036	380.128571	-158.445358	-282.232605
7086.758373	378.842773	-158.036224	-281.355927
7086.761704	379.076538	-158.328461	-279.777893
7086.765033	377.966095	-157.568665	-278.842773
7086.768388	379.251923	-157.744019	-278.608978
7086.771700	377.323212	-157.393341	-278.667450
7086.775033	377.790771	-156.984222	-277.615417
7086.778374	377.907654	-156.808884	-276.329651
7086.781703	376.738739	-156.984222	-275.920502
7086.785031	377.557007	-156.867325	-275.511414
7086.789235	377.323212	-156.750443	-274.810059
7086.792632	375.978973	-156.867325	-274.108734
7086.795967	377.381653	-156.925781	-272.647583
7086.799302	377.089417	-157.101105	-273.407349
7086.802558	376.329651	-156.049103	-273.465790
7086.805503	375.686737	-157.101105	-272.647583
7086.808791	375.978973	-156.691986	-273.056702
7086.812140	375.043854	-156.341324	-272.764465
7086.815464	375.277618	-157.159561	-272.589142
7086.818788	375.160706	-157.218002	-272.472229
7086.821697	375.745178	-157.159561	-271.595551
7086.825036	375.920502	-157.276459	-272.822906
7086.828365	375.219177	-157.451782	-273.232025
7086.831701	375.277618	-157.451782	-273.816498
7086.835032	374.868500	-157.334885	-273.582703
7086.838362	376.446533	-157.744019	-274.225586
7086.841716	375.277618	-158.036224	-274.751617
7086.845027	375.862061	-158.270020	-275.803619
7086.848400	376.563416	-157.860901	-277.030975
7086.851697	377.264771	-158.679138	-278.141418
7086.855034	377.030975	-158.445358	-279.661011
7086.858360	378.199890	-159.029800	-280.245483
7086.861697	378.901215	-158.679138	-281.063690
7086.865029	379.602570	-158.796021	-283.869080
7086.868362	379.661011	-159.088257	-285.563995
7086.871691	380.946808	-159.672699	-287.258911
7086.875026	381.239044	-159.263580	-289.187592
7086.878361	382.933960	-160.140259	-290.531860
7086.881694	384.044403	-160.257156	-292.811218
7086.885020	384.628876	-160.900055	-295.908844
7086.888362	385.037994	-160.490936	-298.129761
7086.891710	385.973114	-161.016953	-301.168915
7086.895025	387.901794	-161.718292	-303.623596
7086.898359	388.135590	-161.426071	-305.493866
7086.901691	389.362946	-162.361191	-308.942139
7086.905946	391.057861	-163.296326	-314.728241
7086.909213	393.629456	-163.530106	-316.773834
7086.912545	394.564575	-164.056107	-320.572754
7086.915878	394.856812	-163.880783	-323.319702
7086.919221	396.668640	-164.640564	-326.534210
7086.922157	396.960815	-165.341904	-329.339569
7086.925465	398.655762	-165.926361	-332.378723
7086.928799	400.409119	-165.867920	-336.119232
7086.932134	401.168915	-166.510803	-339.392151
7086.935469	401.928711	-167.387497	-342.898895
7086.938352	404.032715	-168.322617	-345.821167
7086.941691	404.032715	-169.199295	-350.379883
7086.945020	405.727631	-169.140854	-354.003510
7086.948354	407.188782	-170.251312	-357.393341
7086.951683	409.000580	-170.894211	-361.426056
7086.955022	408.942139	-171.595566	-366.393921
7086.958352	411.163055	-172.472244	-369.900635
7086.961683	412.565765	-172.647568	-374.810059
7086.965012	412.916412	-173.348923	-379.427246
7086.968353	415.721802	-174.342484	-384.102875
7086.971679	416.540039	-174.751602	-388.836945
7086.975015	418.936310	-175.160736	-393.921692
7086.978361	420.338959	-176.037415	-398.597321
7086.981678	420.397430	-176.972534	-404.149628
7086.985021	422.267670	-176.914078	-409.585052
7086.988352	423.319672	-177.732330	-415.195801
7086.991683	425.014587	-178.024536	-421.624817
7086.995061	426.534180	-178.667450	-427.761566
7086.998352	429.164215	-179.719467	-433.196960
7087.001679	429.105804	-179.427231	-439.392181
7087.005011	430.450012	-181.706604	-445.587402
7087.008373	432.320251	-181.355927	-452.776154
7087.011681	433.430725	-181.122147	-460.023346
7087.015008	436.002350	-182.700180	-467.738159
7087.018346	437.580353	-182.583282	-474.517822
7087.022550	440.151978	-183.635300	-490.356506
7087.025889	441.320862	-184.278198	-498.071289
7087.029312	441.905304	-184.044418	-505.961426
7087.032603	443.658691	-185.096436	-514.026855
7087.035933	444.827606	-185.037994	-522.618347
7087.038812	446.756256	-186.966675	-529.164246
7087.042103	447.632996	-186.849792	-538.457031
7087.045433	448.801849	-187.492691	-547.048523
7087.048772	449.736969	-187.375809	-555.990662
7087.052128	450.730560	-187.784927	-564.640564
7087.055009	450.321442	-188.603149	-574.225586
7087.058346	451.315033	-189.012283	-582.291077
7087.061679	452.308594	-189.187607	-590.590271
7087.065010	452.951477	-190.122742	-600.233765
7087.068343	453.419067	-190.765625	-611.572144
7087.071676	453.886597	-190.414963	-618.351868
7087.075004	453.886597	-190.531845	-627.761536
7087.078343	454.120392	-191.583878	-636.703674
7087.081685	454.646393	-192.051437	-648.568115
7087.085006	453.477478	-192.635880	-658.153076
7087.088346	454.880188	-192.635880	-668.673279
7087.091678	452.425476	-192.343658	-678.725891
7087.095006	454.178864	-192.635880	-689.362976
7087.098336	453.769745	-193.220337	-697.895935
7087.101675	451.315033	-192.928116	-709.818848
7087.105005	452.717682	-193.571014	-719.170105
7087.108340	451.315033	-192.986557	-730.976074
7087.111668	449.094116	-192.986557	-742.255981
7087.115001	449.386322	-191.992981	-752.776123
7087.118374	446.639404	-191.583878	-764.289917
7087.121668	444.886017	-191.408539	-778.024536
7087.125008	444.184692	-190.824081	-789.070679
7087.128330	442.139099	-190.298065	-800.642883
7087.131670	440.911774	-190.005844	-812.916443
7087.134998	437.229675	-188.603149	-824.546997
7087.139260	430.742249	-185.856216	-849.795410
7087.142595	429.807129	-185.505554	-860.490906
7087.145852	426.241974	-183.401520	-873.465820
7087.149182	422.501465	-182.817062	-887.375854
7087.152511	418.059631	-181.239044	-898.071289
7087.155427	414.552887	-179.251892	-911.572144
7087.158759	410.169495	-177.907654	-923.261230
7087.162134	406.662750	-176.037415	-937.112793
7087.165453	401.227325	-174.342484	-948.860352
7087.168782	396.201050	-172.355347	-962.010498
7087.171661	390.590271	-170.660431	-972.530640
7087.175000	385.563995	-168.381058	-985.096436
7087.178332	380.011688	-166.452377	-994.564636
7087.181662	374.050262	-163.705429	-1007.071899
7087.184993	367.796600	-161.367615	-1019.520752
7087.188332	361.367645	-159.614258	-1030.742310
7087.191662	353.828156	-157.101105	-1039.625977
7087.194999	346.054932	-154.529510	-1049.970825
7087.198323	338.457031	-152.250153	-1060.841675
7087.201661	330.859131	-149.795441	-1072.764526
7087.205029	322.618347	-146.931625	-1083.343018
7087.208323	315.137329	-144.301575	-1094.447754
7087.211659	307.539429	-140.970200	-1102.104004
7087.214991	297.545288	-138.749268	-1112.215088
7087.218325	288.603149	-135.008759	-1121.507935
7087.221664	279.777893	-131.794281	-1131.852783
7087.224995	271.478668	-128.112213	-1140.736328
7087.228326	261.309174	-125.189949	-1148.918701
7087.231652	251.899475	-121.566330	-1156.808838
7087.234993	241.437744	-117.884277	-1163.997681
7087.238378	231.443604	-113.793098	-1171.946289
7087.241658	219.812958	-109.643486	-1177.732300
7087.244991	210.052612	-104.734077	-1185.856201
7087.248350	198.538864	-100.584457	-1193.512573
7087.251654	186.440689	-96.025719	-1198.129761
7087.256286	162.594971	-86.732903	-1209.409668
7087.259183	150.789017	-81.355927	-1213.267090
7087.262521	138.281708	-75.978958	-1217.475098
7087.265860	126.066628	-70.660431	-1221.507935
7087.269247	112.741089	-65.341911	-1225.657471
7087.272112	99.707771	-59.789597	-1227.177002
7087.275472	86.440674	-53.769726	-1231.911133
7087.278755	73.524254	-48.042080	-1230.625366
7087.282074	60.140270	-42.665108	-1235.008789
7087.285414	46.464054	-36.586792	-1233.956665
7087.288322	33.138515	-30.508474	-1231.911133
7087.291686	19.696083	-24.839275	-1234.249023
7087.294987	5.961426	-18.760958	-1232.086426
7087.298316	-8.357686	-13.091760	-1234.541260
7087.301649	-21.566336	-6.838106	-1232.787842
7087.304989	-35.184105	-1.519579	-1229.865601
7087.308319	-48.684978	5.143191	-1227.001709
7087.311654	-62.711864	11.396844	-1224.488647
7087.314986	-75.745178	17.358271	-1216.247803
7087.318317	-89.187607	22.910578	-1215.721802
7087.321653	-102.279366	28.170660	-1209.351196
7087.324974	-115.780243	33.956753	-1206.896606
7087.328371	-129.281128	39.918175	-1201.636475
7087.331649	-141.729980	45.353596	-1194.272339
7087.334998	-154.646408	50.789009	-1189.947388
7087.338313	-166.452377	56.341320	-1184.570435
7087.341652	-179.719467	61.367619	-1176.855713
7087.344978	-192.168320	66.978378	-1169.783813
7087.348314	-203.214508	71.303329	-1162.887207
7087.351642	-215.897125	77.264755	-1153.769653
7087.354978	-227.118637	81.589714	-1145.470581
7087.358308	-239.216827	87.258911	-1137.171265
7087.361647	-249.853897	92.460548	-1128.579834
7087.364981	-260.607849	96.727058	-1119.988403
7087.368315	-271.244873	101.227356	-1110.169556
7087.372515	-292.752777	111.513733	-1090.473389
7087.375902	-302.571594	116.306259	-1080.479248
7087.379266	-312.741089	122.033897	-1069.900635
7087.382492	-321.858582	126.358856	-1059.263672
7087.385838	-331.969604	130.566925	-1049.736938
7087.388732	-341.496216	134.716537	-1036.995850
7087.392068	-349.678528	139.333725	-1027.995361
7087.395397	-359.614258	143.658676	-1014.377563
7087.398737	-367.504395	147.925186	-1002.337830
7087.402092	-376.271179	152.600815	-990.824036
7087.404975	-383.050842	156.107544	-976.388062
7087.408304	-390.999420	161.016953	-965.692627
7087.411639	-399.064880	164.757462	-953.594421
7087.414978	-404.734100	168.907074	-939.684387
7087.418313	-412.682617	172.413788	-929.690247
7087.421674	-418.819427	176.271194	-915.780273
7087.424975	-425.423706	179.368790	-904.850952
7087.428303	-431.034485	182.875519	-891.466980
7087.431639	-436.528351	185.797775	-880.654602
7087.434969	-441.729980	188.836929	-867.095276
7087.438302	-446.990051	191.759201	-854.003540
7087.441638	-451.607239	194.506134	-843.015747
7087.444970	-455.990662	196.960846	-828.813538
7087.448300	-459.906494	198.831100	-818.118103
7087.451632	-465.984833	200.993561	-805.143188
7087.454971	-469.608398	202.746933	-793.454102
7087.458308	-471.537109	204.091171	-780.946838
7087.461634	-475.511414	206.136749	-767.387512
7087.464991	-478.141449	207.539444	-757.744019
7087.468302	-483.109283	209.643478	-746.347168
7087.471631	-485.973114	210.695511	-734.541199
7087.474968	-486.908234	212.507294	-722.676819
7087.478297	-489.129150	213.500885	-711.922852
7087.481684	-493.337250	213.851547	-702.045593
7087.486246	-495.441254	216.130920	-679.544128
7087.489168	-497.720612	217.241379	-669.549988
7087.492481	-497.019287	217.942719	-658.562256
7087.495866	-500.584473	218.293411	-646.873169
7087.499198	-501.168915	218.877838	-637.405029
7087.502083	-502.337830	219.579193	-627.644653
7087.505416	-502.805389	219.871429	-616.773804
7087.508747	-503.506714	219.871429	-606.545898
7087.512057	-503.565155	220.689651	-596.259521
7087.515390	-503.974304	220.864990	-586.966675
7087.518301	-503.740509	221.332550	-576.914062
7087.521626	-505.143219	222.033905	-566.452332
7087.525000	-504.383423	222.092346	-557.685547
7087.528300	-504.383423	221.858566	-547.106934
7087.531629	-504.032715	222.735245	-537.638794
7087.534961	-503.682037	223.085907	-527.761536
7087.538299	-503.272949	223.027466	-521.098755
7087.541628	-503.389832	223.085907	-511.572174
7087.544961	-502.454712	223.085907	-500.818237
7087.548290	-500.701324	222.676804	-492.869659
7087.551623	-500.467590	222.618347	-483.401550
7087.554955	-497.954407	223.085907	-474.693146
7087.558297	-498.772675	222.676804	-466.510834
7087.561628	-498.188202	222.852142	-459.614288
7087.564954	-496.902405	222.969025	-450.730560
7087.568318	-493.454132	222.033905	-443.775574
7087.571626	-493.278778	222.384567	-435.885437
7087.574953	-492.168335	221.391006	-428.579773
7087.578295	-491.467010	221.332550	-420.631226
7087.581639	-489.596741	220.397430	-414.494476
7087.584957	-488.720032	219.637634	-407.948578
7087.588291	-487.784912	219.696091	-401.402710
7087.591625	-485.622467	218.527176	-395.090576
7087.594955	-484.278198	218.234940	-388.836945
7087.598286	-482.349487	217.475159	-382.817078
7087.603017	-478.842773	215.488022	-370.777313
7087.605841	-477.907654	215.604904	-365.634125
7087.609220	-476.388062	214.786667	-360.607849
7087.612590	-475.277618	214.085342	-354.880188
7087.615799	-471.770905	213.267090	-349.912323
7087.619130	-471.712433	212.273529	-343.775574
7087.622037	-470.017517	211.630630	-338.223267
7087.625403	-468.497955	210.870834	-333.489166
7087.628705	-467.562805	210.286377	-328.930450
7087.632043	-466.043243	209.935715	-323.787262
7087.634947	-464.874359	209.292816	-318.760956
7087.638286	-463.062531	208.533020	-314.903564
7087.641618	-462.185852	208.065460	-311.046173
7087.644947	-460.315613	207.539444	-306.662781
7087.648286	-458.386902	207.013443	-302.045593
7087.651661	-457.334900	206.838104	-297.369965
7087.654977	-455.172394	205.786087	-292.869659
7087.658280	-453.360596	205.786087	-289.596710
