time (s)	magX	magY	magZ
2646.659013	363.742798	-179.030746	-385.968292
2646.662364	361.755646	-178.446289	-379.130188
2646.665674	361.288086	-178.212509	-373.168732
2646.669001	359.300934	-177.102051	-367.557983
2646.672351	357.606018	-175.933136	-361.538147
2646.675670	355.443542	-175.056458	-355.868927
2646.679008	354.508423	-175.114914	-349.615265
2646.682341	352.871948	-174.647339	-344.998077
2646.685669	350.943237	-173.127762	-339.504242
2646.690297	347.904083	-171.608185	-328.224274
2646.693253	346.735168	-170.030151	-322.847321
2646.696558	344.981812	-168.510590	-318.639252
2646.699948	343.812927	-168.043015	-313.145355
2646.703262	342.118011	-166.815659	-308.002167
2646.706149	339.546417	-165.938980	-303.443451
2646.709439	338.435944	-166.114319	-299.118500
2646.712751	337.091705	-164.244064	-295.261078
2646.716098	335.513672	-163.308945	-290.936157
2646.719441	334.870789	-162.607605	-286.260529
2646.722332	333.058960	-161.555573	-282.578461
2646.725666	331.422516	-160.036011	-279.013306
2646.729001	329.844482	-159.509995	-274.571442
2646.732338	328.734039	-158.516418	-270.012695
2646.735666	326.805328	-158.048859	-267.967133
2646.739002	324.818176	-157.289062	-263.875946
2646.742334	323.064819	-156.587723	-260.719879
2646.745663	321.369904	-155.944824	-257.154724
2646.749012	319.967224	-155.243484	-253.764923
2646.752336	318.564514	-154.834366	-251.602417
2646.755661	317.921631	-154.717468	-247.745026
2646.758999	316.343597	-154.483688	-245.231873
2646.762332	314.473358	-154.133026	-243.010956
2646.765713	313.129089	-153.782349	-239.913361
2646.768999	311.843323	-153.373230	-237.984650
2646.772335	310.557526	-152.555008	-235.529968
2646.775659	309.797729	-152.262772	-233.893494
2646.779030	307.401459	-151.970551	-231.380341
2646.782331	307.226135	-151.736755	-229.568512
2646.785661	305.297424	-151.210754	-227.289154
2646.788991	304.362305	-150.860092	-226.003357
2646.792336	304.186981	-150.450974	-223.490204
2646.795657	302.667389	-149.924957	-221.035492
2646.798992	302.784302	-149.691177	-219.457489
2646.803680	299.920441	-149.223618	-217.528778
2646.806655	299.102234	-148.814484	-215.833862
2646.809912	298.108673	-149.223618	-213.729828
2646.813295	298.167084	-147.762482	-212.619385
2646.816518	296.705963	-147.937820	-210.690674
2646.819837	296.705963	-146.885803	-209.171112
2646.822783	296.004608	-146.768906	-207.826874
2646.826097	295.537048	-146.885803	-206.424164
2646.829420	294.485046	-146.184464	-206.424164
2646.832745	293.725250	-146.009109	-203.618774
2646.835670	293.725250	-145.073990	-203.151215
2646.838987	292.790131	-144.547989	-201.573212
2646.842321	292.381012	-144.547989	-200.754974
2646.845650	291.387451	-144.021973	-199.293823
2646.848992	291.270569	-143.671295	-197.949585
2646.852348	291.153656	-143.671295	-197.774261
2646.855651	290.919891	-142.619293	-196.897583
2646.858983	290.627655	-142.327057	-197.423584
2646.862322	290.335419	-142.268616	-195.903992
2646.865654	289.867859	-141.567276	-195.144196
2646.868985	289.224976	-142.210175	-194.501312
2646.872317	288.932739	-142.443954	-193.858429
2646.875650	288.348267	-142.327057	-193.683075
2646.879018	289.283417	-142.034836	-193.040161
2646.882321	288.289856	-142.443954	-194.092194
2646.885653	288.406708	-142.268616	-192.689514
2646.888986	288.114502	-142.619293	-193.040161
2646.892330	288.698944	-142.619293	-193.507751
2646.895650	288.231384	-142.151733	-192.923279
2646.898983	288.231384	-143.262192	-193.215515
2646.902313	288.231384	-143.028412	-193.449310
2646.905643	287.880707	-143.203735	-194.618195
2646.908983	288.114502	-143.437515	-194.267517
2646.912312	288.582062	-143.788193	-195.377991
2646.916566	288.582062	-144.898651	-196.313110
2646.919855	288.465179	-145.132431	-196.780670
2646.923196	288.815857	-145.015549	-197.891144
2646.926493	289.400299	-145.658447	-198.592499
2646.929853	290.569183	-146.359787	-199.644501
2646.933195	289.984741	-146.184464	-200.521179
2646.936104	290.978333	-147.353363	-202.040771
2646.939424	291.387451	-147.353363	-202.449890
2646.942767	291.328979	-147.528702	-203.501892
2646.945738	291.913452	-147.704025	-204.495483
2646.948979	293.666809	-148.171600	-205.255249
2646.952345	292.790131	-148.697601	-206.833282
2646.955646	294.075928	-149.282059	-207.709961
2646.958977	295.420166	-149.223618	-209.346436
2646.962313	295.361725	-149.632736	-210.807556
2646.965656	296.413757	-150.567856	-212.327148
2646.968981	297.524200	-149.983414	-213.612946
2646.972313	297.524200	-150.918533	-215.366302
2646.975641	298.108673	-150.509415	-216.184540
2646.978974	299.569794	-151.093872	-217.762573
2646.982304	301.089355	-150.976974	-220.275726
2646.985645	301.498505	-151.386093	-222.145966
2646.988970	302.550507	-151.327652	-224.074646
2646.992307	303.953186	-152.204330	-225.535797
2646.995662	305.063629	-152.905670	-227.873596
2646.998974	305.122101	-153.548569	-230.094543
2647.002303	307.401459	-153.899246	-232.081665
2647.005643	307.927490	-153.957687	-234.185699
2647.008968	309.447052	-154.892822	-236.231293
2647.012309	310.382202	-155.594162	-239.095123
2647.015643	311.784882	-156.295502	-241.140717
2647.018977	312.077118	-157.522842	-244.121429
2647.022303	314.064240	-158.048859	-246.517670
2647.025637	314.122681	-158.867096	-250.141296
2647.030268	316.811157	-161.146469	-255.810486
2647.033210	318.622986	-161.730927	-259.024963
2647.036504	319.908783	-162.549149	-262.882385
2647.039898	320.551666	-163.893387	-266.681335
2647.043235	321.720581	-165.120743	-270.071136
2647.046561	323.590851	-165.880539	-273.402557
2647.049506	324.525970	-166.815659	-277.143036
2647.052740	326.220856	-168.218353	-281.877106
2647.056060	327.798889	-168.510590	-285.208496
2647.059388	328.617126	-170.263931	-290.643921
2647.062305	330.253601	-171.315964	-293.916870
2647.065630	331.714722	-172.484863	-299.001617
2647.068966	333.117432	-173.127762	-303.618774
2647.072301	335.046112	-174.355118	-308.411316
2647.075637	335.864380	-174.472000	-312.619354
2647.078967	337.208588	-175.816254	-317.528778
2647.082314	339.721741	-176.926712	-322.145966
2647.085630	340.539978	-177.744949	-326.237152
2647.088960	342.936249	-178.680069	-332.140137
2647.092292	344.748047	-179.264526	-336.991089
2647.095629	345.741608	-179.965866	-341.666718
2647.098962	347.494965	-180.900986	-347.452789
2647.102291	348.430084	-181.836121	-353.355774
2647.105627	350.125000	-182.011459	-358.966522
2647.109019	351.878357	-183.121918	-365.220184
2647.112299	353.748657	-183.355698	-370.714050
2647.115629	355.501984	-185.167511	-376.149475
2647.118958	356.320221	-185.401291	-382.636902
2647.122296	358.424255	-186.161087	-389.358124
2647.125657	360.002289	-186.803970	-395.611786
2647.128961	360.937408	-187.446869	-401.631622
2647.132292	362.398529	-188.265106	-408.586639
2647.135621	364.210358	-189.317123	-415.307831
2647.138961	365.671478	-190.135361	-422.438171
2647.142293	367.249512	-191.012039	-429.919189
2647.146499	369.353546	-192.356277	-444.121429
2647.149838	370.873138	-193.291397	-452.362213
2647.153214	371.399139	-194.518753	-461.187469
2647.156540	372.100494	-195.453888	-468.434692
2647.159809	373.269379	-196.622787	-476.558594
2647.162716	373.853851	-198.317703	-485.033142
2647.166040	374.379822	-199.077499	-493.975311
2647.169410	374.379822	-199.486618	-502.975891
2647.172721	375.724091	-199.954178	-512.268738
2647.176044	374.788971	-201.824432	-522.204407
2647.178957	376.016327	-202.525772	-532.315491
2647.182287	376.308533	-203.285568	-542.952515
2647.185625	375.782532	-204.571350	-552.479126
2647.188959	375.139618	-205.038925	-562.122620
2647.192286	374.847412	-205.623383	-571.766113
2647.195621	375.431854	-205.857178	-582.870728
2647.198953	374.730499	-207.084503	-592.163513
2647.202342	373.853851	-207.785858	-603.735657
2647.205624	373.620056	-208.078094	-613.320740
2647.208948	372.042023	-208.019623	-623.782410
2647.212310	370.989990	-208.662552	-635.062378
2647.215623	369.762634	-208.136520	-646.459229
2647.218949	368.535309	-207.844299	-657.388550
2647.222279	367.658630	-207.376740	-668.259399
2647.225625	366.314362	-207.142960	-679.130188
2647.228947	363.859680	-206.967636	-690.468567
2647.232287	363.158325	-206.500061	-700.813416
2647.235620	360.469849	-205.798706	-711.742737
2647.238949	359.184052	-205.097382	-722.671997
2647.242284	356.320221	-203.811569	-733.951965
2647.245616	353.982422	-202.116653	-744.881226
2647.248949	351.586151	-201.064636	-755.050720
2647.252278	349.072998	-200.304855	-766.330688
2647.255631	345.274048	-199.135956	-776.909302
2647.259879	337.909943	-196.272125	-798.651001
2647.263208	334.753876	-194.460312	-810.047791
2647.266568	330.428955	-193.232971	-820.801758
2647.269806	326.396210	-191.654938	-831.731018
2647.273121	321.486786	-189.492462	-843.770813
2647.276455	316.694275	-187.680649	-853.180481
2647.279370	311.258850	-185.985748	-863.759094
2647.282699	305.238983	-183.764816	-874.805237
2647.286055	299.452881	-181.836121	-885.676025
2647.289399	293.140808	-179.673645	-897.365112
2647.292319	286.536469	-177.452728	-905.839783
2647.295613	279.873688	-174.764236	-915.892334
2647.298942	271.983582	-172.952423	-926.178711
2647.302280	264.794800	-170.030151	-937.283386
2647.305607	257.956726	-167.458557	-945.816345
2647.308945	248.663895	-164.360962	-955.868958
2647.312272	240.247757	-161.088013	-963.642151
2647.315613	230.838043	-158.574875	-973.344055
2647.318943	221.779022	-155.418808	-980.532898
2647.322279	212.836884	-152.321228	-989.591919
2647.325608	202.842728	-148.463821	-996.371582
2647.328943	192.790131	-144.781769	-1002.975891
2647.332278	182.795975	-140.924377	-1011.392090
2647.335641	171.866684	-136.190292	-1016.944336
2647.338942	162.223206	-132.625122	-1023.139526
2647.342275	151.177032	-127.832619	-1028.458008
2647.345606	140.539978	-123.566109	-1034.360962
2647.348939	129.727600	-118.130684	-1038.335327
2647.352273	119.499657	-113.338165	-1043.478516
2647.355607	108.687263	-108.136528	-1046.751465
2647.358941	97.524200	-102.934891	-1050.433594
2647.362271	86.828705	-97.265694	-1052.888184
2647.365607	75.782532	-91.830276	-1054.758423
2647.368987	64.794800	-86.044189	-1058.148315
2647.373561	42.176453	-75.056458	-1061.012085
2647.376899	31.247169	-68.861252	-1059.667847
2647.379832	19.674990	-63.484272	-1059.492554
2647.383140	8.687263	-56.763058	-1058.908081
2647.386485	-2.651134	-50.860077	-1059.258789
2647.389882	-13.521969	-44.957100	-1057.213135
2647.392713	-24.918812	-39.580128	-1056.161133
2647.396103	-35.731201	-32.683575	-1054.057129
2647.399356	-47.011162	-27.598827	-1051.076416
2647.402686	-58.817116	-21.111395	-1048.270996
2647.406019	-69.980179	-15.500640	-1044.472046
2647.408933	-80.792572	-9.188542	-1042.017334
2647.412263	-92.189423	-3.870015	-1035.120728
2647.415600	-102.943359	2.325192	-1031.263428
2647.418934	-115.158432	8.345064	-1026.003418
2647.422296	-125.795502	14.248045	-1020.392639
2647.425599	-137.016998	19.858799	-1015.600159
2647.428929	-148.296951	25.118879	-1009.697083
2647.432270	-158.934006	29.969845	-1002.449951
2647.435597	-169.921738	35.405262	-995.670288
2647.438930	-180.441895	40.957573	-987.721680
2647.442264	-191.020508	45.808533	-979.363953
2647.445592	-201.014679	50.659496	-971.181641
2647.448959	-210.950394	55.802692	-963.291504
2647.452298	-220.769196	61.004330	-953.998718
2647.455599	-230.178894	66.030624	-944.355225
2647.458930	-240.114594	70.414032	-934.887085
2647.462267	-249.290527	75.031204	-924.191589
2647.465591	-257.765106	79.765282	-914.957214
2647.468929	-265.889008	83.622673	-905.372192
2647.472264	-274.363586	88.648979	-894.910461
2647.475586	-282.253693	92.915482	-883.572021
2647.478925	-289.559387	97.824890	-873.168823
2647.482256	-297.274170	101.857620	-862.122559
2647.485597	-303.235596	106.241035	-851.894653
2647.490290	-315.275330	113.780472	-829.860779
2647.493127	-322.113434	117.813202	-819.515930
2647.496569	-327.139740	121.962830	-808.586670
2647.499890	-332.458282	125.937119	-796.956055
2647.503122	-338.419678	129.034714	-787.780151
2647.506021	-342.452423	133.067444	-775.214355
2647.509382	-346.835815	136.515717	-765.044861
2647.512678	-350.284088	139.847107	-753.823364
2647.516014	-354.433716	143.061600	-744.296814
2647.519346	-357.472900	146.100754	-733.075256
2647.522257	-361.739380	149.023026	-721.912170
2647.525585	-364.486328	151.769958	-711.333618
2647.528921	-367.408600	154.107773	-701.047241
2647.532251	-370.389313	155.627350	-689.533447
2647.535587	-372.434875	158.198944	-680.006897
2647.538935	-374.363586	160.595215	-669.252991
2647.542257	-377.285858	162.114792	-659.258789
2647.545586	-379.857422	163.868149	-647.978821
2647.548933	-381.786133	165.270844	-636.757324
2647.552265	-383.247253	167.257980	-625.944946
2647.555585	-385.526642	168.660660	-616.243042
2647.558918	-386.461761	170.004913	-606.015076
2647.562253	-386.870911	171.232254	-595.494873
2647.565579	-389.384033	171.290710	-585.734558
2647.568960	-389.617798	172.225830	-575.272766
2647.572248	-389.676270	173.277847	-565.161743
2647.575578	-392.014069	173.803848	-555.459839
2647.578913	-392.949188	174.212982	-546.283875
2647.582259	-393.299896	174.446762	-535.413025
2647.585582	-392.715454	174.622086	-525.594238
2647.588915	-393.299896	174.972763	-516.184570
2647.592245	-394.176575	175.381882	-507.008606
2647.595579	-394.059631	175.381882	-497.482025
2647.598912	-393.650574	176.550797	-488.306091
2647.603164	-393.825897	175.966339	-471.006256
2647.606512	-392.598511	176.141663	-461.479675
2647.609764	-391.371185	176.726120	-452.595978
2647.613121	-390.669861	176.375443	-445.290314
2647.616434	-389.208679	176.550797	-436.698853
2647.619782	-388.799622	177.018356	-429.042511
2647.622667	-387.513763	176.726120	-422.145966
2647.626046	-386.052643	177.252136	-414.606506
2647.629360	-384.766846	176.433899	-407.067047
2647.632691	-382.896606	176.492340	-400.638062
2647.635593	-382.195282	176.375443	-394.209076
2647.638932	-380.909485	176.317017	-385.909821
2647.642244	-380.266571	175.381882	-380.240631
2647.645580	-377.227386	176.726120	-374.162323
2647.648908	-376.526062	176.141663	-368.025543
2647.652244	-375.532471	175.791000	-361.128998
2647.655573	-372.843994	175.615662	-355.459808
2647.658909	-371.441315	175.264984	-350.375061
2647.662242	-369.980194	175.206543	-343.829193
2647.665578	-367.233246	175.031204	-338.744446
2647.668939	-366.999481	174.738983	-332.724548
2647.672245	-364.720093	174.154526	-328.165833
2647.675569	-363.609650	173.394730	-322.847321
2647.678904	-361.622498	172.868729	-318.230103
2647.682241	-359.869141	172.459610	-313.203827
2647.685570	-358.408020	172.225830	-308.060638
2647.688907	-356.888428	170.940033	-304.203247
2647.692246	-355.251953	170.998474	-298.650940
2647.695566	-353.557037	169.712677	-293.858398
2647.698923	-351.862122	168.368439	-289.591888
2647.702236	-349.465851	168.076218	-285.442261
2647.705587	-348.822968	166.965744	-280.766663
2647.708910	-347.887848	166.439743	-276.675476
2647.712256	-344.790222	165.153946	-271.941406
2647.716835	-342.335510	164.043488	-264.051300
2647.719745	-340.874390	162.640793	-259.784760
2647.723116	-339.004150	162.407013	-256.102722
2647.726437	-338.185913	161.764114	-251.953094
2647.729854	-335.614319	161.062775	-247.628143
2647.733191	-334.445404	160.244537	-244.530548
2647.736015	-333.101166	159.075623	-241.023804
2647.739331	-331.172485	158.257385	-237.400208
2647.742689	-330.178894	158.315842	-234.536377
2647.745997	-328.308655	157.380707	-230.737427
2647.748903	-327.373505	156.679367	-228.399628
2647.752232	-325.152588	155.744247	-225.535797
2647.755585	-324.743469	155.568909	-222.262848
2647.758900	-322.405670	155.042892	-219.808167
2647.762231	-321.295197	154.809113	-217.119659
2647.765569	-320.243195	154.458450	-215.132507
2647.768899	-317.846924	154.399994	-212.444031
2647.772228	-317.379364	153.464874	-210.807556
2647.775560	-315.567566	152.997314	-209.580200
2647.778899	-314.574005	152.705078	-206.716400
2647.782226	-312.820648	152.471298	-205.079926
2647.785575	-312.353088	152.120636	-202.683655
2647.788893	-310.482819	151.945297	-200.988739
2647.792224	-309.898376	152.179077	-200.228973
2647.795560	-308.671021	151.536179	-198.417145
2647.798894	-307.677429	152.179077	-195.845551
2647.802227	-306.274750	151.419296	-195.611755
2647.805557	-305.105835	151.010162	-193.273956
2647.808889	-304.053833	150.893280	-192.163513
2647.812231	-303.820038	150.250366	-190.410156
2647.815558	-303.235596	149.958160	-189.007446
2647.818892	-302.358887	149.549026	-187.312531
2647.822261	-301.014679	148.964584	-185.500732
2647.825564	-300.313324	148.730804	-184.799377
2647.828904	-300.079559	148.497025	-182.987579
2647.833097	-299.027527	147.854126	-181.351105
2647.836433	-297.741730	147.035889	-180.357544
2647.839808	-296.806610	146.802109	-179.773087
2647.843157	-296.572815	146.977432	-177.844391
2647.846402	-295.754578	146.451431	-176.733932
2647.849308	-295.813019	146.100754	-175.448120
2647.852646	-295.287018	145.574753	-174.980560
2647.855975	-294.293427	145.224075	-173.168762
2647.859309	-294.527222	144.814972	-172.934982
2647.862648	-293.767456	144.698074	-172.116730
2647.865588	-293.299866	144.814972	-171.473846
2647.868888	-293.066101	144.230499	-170.889374
2647.872227	-292.949219	143.821396	-170.597168
2647.875550	-292.598541	144.288956	-169.720490
2647.878888	-291.897186	144.230499	-170.071167
2647.882220	-291.663391	143.587616	-168.785355
2647.885552	-292.481659	143.704498	-168.493134
2647.888933	-291.663391	143.470718	-169.019135
2647.892225	-291.195831	143.996719	-168.843811
2647.895558	-290.786743	144.347397	-169.077576
2647.898887	-291.371185	144.288956	-168.317780
2647.902214	-291.078949	144.172058	-167.850220
2647.905552	-290.786743	144.464294	-168.785355
2647.908920	-292.072510	144.230499	-169.662048
2647.912215	-291.838745	145.107178	-169.311371
2647.915563	-292.189423	144.639618	-169.545135
2647.918881	-291.663391	145.457855	-169.778931
2647.922215	-291.488068	145.750092	-170.947830
2647.925549	-292.364746	145.340958	-171.473846
2647.928884	-292.715424	146.509872	-172.175186
2647.932215	-292.715424	146.802109	-172.642761
2647.935548	-292.832306	147.035889	-174.279221
2647.938877	-294.176575	146.977432	-175.272797
2647.942209	-293.416779	147.971008	-175.214355
2647.946475	-295.228577	148.847687	-177.552155
2647.949824	-294.761017	148.964584	-178.019714
2647.953130	-295.871490	149.549026	-179.422409
2647.956390	-297.507935	149.782806	-181.175781
2647.959749	-297.274170	150.308823	-180.883545
2647.962639	-298.150848	150.834839	-181.994019
2647.965970	-298.559967	150.308823	-183.805817
2647.969296	-299.845764	150.776382	-185.383850
2647.972633	-300.138000	150.893280	-186.961853
2647.976006	-301.306915	151.302399	-188.247650
2647.978876	-301.599121	151.010162	-188.539886
2647.982206	-302.709595	151.360840	-190.001007
2647.985567	-303.410919	151.711502	-191.462158
2647.988907	-304.579834	152.062180	-192.981750
2647.992212	-305.047394	152.646637	-194.092194
2647.995570	-306.391632	152.997314	-195.202667
2647.998875	-307.151428	153.523331	-197.365143
2648.002215	-307.969666	153.815536	-199.235382
2648.005544	-308.378784	153.757111	-200.930298
2648.008875	-310.482819	154.692230	-202.274536
2648.012201	-310.950378	155.042892	-203.735687
2648.015544	-312.119293	155.452011	-205.898163
2648.018873	-312.937500	155.978027	-207.593079
2648.022206	-314.398651	155.919571	-210.047791
2648.025534	-315.801361	156.679367	-212.911591
2648.028871	-316.444244	157.556046	-214.898743
2648.032201	-318.139160	157.965164	-217.061218
2648.035538	-319.541840	159.426300	-220.392609
2648.038896	-320.827637	159.893875	-222.613525
2648.042200	-321.704315	160.887436	-226.295593
2648.045536	-322.639465	161.647217	-229.685425
2648.048874	-324.743469	162.699249	-233.309021
2648.052199	-325.912384	163.108353	-236.757324
2648.055538	-327.665741	164.277267	-239.971802
2648.060152	-329.945129	165.563049	-245.582550
2648.063082	-331.523132	167.082642	-248.972382
2648.066379	-332.575165	167.667084	-252.829773
2648.069748	-334.854523	168.894440	-257.739166
2648.073070	-336.374115	169.362000	-261.479675
