time (s)	magX	magY	magZ
7299.593756	-80.829926	72.063118	-1193.980103
7299.597082	-96.201050	77.089424	-1192.460571
7299.600415	-111.455284	82.291061	-1184.804199
7299.603753	-127.644661	88.135597	-1179.018066
7299.607107	-142.840439	92.635887	-1171.303345
7299.610418	-157.919342	97.369957	-1164.289795
7299.613754	-172.706024	102.746925	-1157.685547
7299.617088	-187.843369	106.312096	-1149.094116
7299.620416	-202.279373	111.513733	-1140.093506
7299.623753	-216.832260	115.663353	-1129.573364
7299.627085	-230.566925	120.572769	-1121.916992
7299.630415	-243.307999	124.722382	-1111.163086
7299.633744	-256.165985	128.287552	-1101.402710
7299.637080	-269.725311	132.028061	-1091.233154
7299.640415	-282.057281	135.593231	-1080.946777
7299.643747	-293.044983	139.275284	-1067.913574
7299.647079	-305.844543	142.898895	-1056.867310
7299.650434	-315.721802	145.762711	-1046.522461
7299.653747	-327.352417	148.860306	-1034.716553
7299.657954	-348.918762	155.172424	-1011.221497
7299.661351	-357.510223	157.919342	-998.597351
7299.664662	-368.907074	160.490936	-986.674500
7299.667944	-377.907654	163.471649	-975.336060
7299.671265	-385.563995	165.517242	-963.646973
7299.674185	-393.804779	168.030396	-950.379822
7299.677500	-401.519592	170.777313	-939.275269
7299.680831	-410.111053	173.582703	-923.962585
7299.684162	-417.299835	175.511398	-910.987732
7299.687073	-425.365295	177.264755	-897.019287
7299.690407	-431.911194	179.836349	-884.628845
7299.693744	-438.690796	181.472824	-871.770874
7299.697073	-444.476898	183.810638	-856.984253
7299.700402	-450.847443	185.505554	-845.061401
7299.703743	-456.165985	187.492691	-831.735779
7299.707082	-461.542938	189.070709	-816.247864
7299.710441	-466.510834	190.765625	-804.734009
7299.713744	-470.777313	192.518997	-790.648743
7299.717075	-475.745209	193.161896	-774.400940
7299.720408	-481.589691	194.330795	-761.250732
7299.723764	-484.044403	196.084167	-748.100525
7299.727070	-489.830505	196.493286	-735.651672
7299.730404	-492.285217	197.136169	-720.806580
7299.733741	-495.149048	198.012848	-708.825256
7299.737070	-498.772675	199.766220	-694.564575
7299.740409	-500.000000	199.240204	-682.057312
7299.743742	-503.974304	200.233795	-667.971924
7299.747075	-504.441833	200.058441	-654.997070
7299.750405	-506.604340	199.473984	-643.366455
7299.753759	-508.299255	199.941559	-629.047363
7299.757068	-510.753967	199.473984	-618.936279
7299.760404	-510.695496	199.123322	-605.902954
7299.763732	-512.799561	199.357101	-593.512573
7299.768007	-513.208618	198.597305	-571.186462
7299.771327	-515.020447	198.305084	-559.146667
7299.774590	-513.208618	197.603745	-549.444763
7299.777933	-513.734680	196.960846	-538.457031
7299.781250	-513.734680	195.791931	-528.287537
7299.784159	-513.208618	195.090591	-517.825867
7299.787498	-513.442444	194.564575	-507.597870
7299.790850	-512.974854	193.278793	-498.305084
7299.794193	-511.396851	192.811234	-488.661621
7299.797528	-511.221497	192.109879	-478.258331
7299.800404	-510.169495	191.174759	-469.140869
7299.803739	-509.175934	189.362946	-458.679138
7299.807065	-508.182343	189.129166	-450.672089
7299.810402	-506.604340	188.077148	-442.255981
7299.813729	-506.078339	187.668030	-433.196960
7299.817061	-504.675629	186.674469	-425.014587
7299.820398	-502.863831	186.966675	-417.416718
7299.823728	-501.227325	185.563995	-409.234375
7299.827060	-498.597290	185.037994	-401.753387
7299.830399	-499.298676	184.395081	-393.687897
7299.833724	-496.610168	183.401520	-385.037994
7299.837064	-495.265900	181.881943	-378.258331
7299.840419	-492.577454	181.063705	-370.192871
7299.843730	-490.590271	180.829926	-362.536530
7299.847057	-488.953827	180.070145	-354.529510
7299.850393	-488.135590	179.135010	-347.165405
7299.853730	-485.037994	177.849213	-340.210419
7299.857063	-483.401550	177.206314	-333.138519
7299.860387	-481.765045	176.154297	-326.241974
7299.863729	-478.433655	174.751602	-319.228516
7299.867081	-476.154266	174.108704	-312.390411
7299.870393	-472.881378	172.881348	-306.312103
7299.873727	-470.952667	171.946228	-300.935120
7299.877059	-468.381073	170.777313	-293.161896
7299.880391	-465.867889	170.017532	-287.960266
7299.884605	-463.179443	168.673294	-277.440094
7299.887935	-461.016937	167.504379	-271.829346
7299.891290	-458.328491	165.926361	-266.218597
7299.894606	-456.925781	164.406769	-261.484497
7299.897538	-454.178864	164.348343	-255.873749
7299.900833	-452.308594	162.887207	-250.964355
7299.904164	-450.087677	162.127411	-245.996506
7299.907488	-448.509644	160.958511	-241.554642
7299.910827	-447.048523	160.490936	-238.573929
7299.913722	-444.360016	159.029800	-234.774994
7299.917059	-443.074219	158.094681	-231.151367
7299.920388	-441.554626	156.399765	-226.300400
7299.923717	-439.976654	155.639984	-222.910568
7299.927052	-438.457062	155.230850	-219.637634
7299.930381	-435.943878	154.354172	-216.715363
7299.933718	-434.365845	153.185272	-213.442413
7299.937055	-432.670959	152.542374	-209.643478
7299.940400	-431.443604	151.490356	-207.130341
7299.943716	-430.157806	150.789017	-204.208069
7299.947046	-428.988892	150.087662	-200.233795
7299.950388	-427.235565	149.503220	-197.837524
7299.953717	-425.657501	148.275864	-196.025711
7299.957047	-423.436584	147.691406	-192.577438
7299.960425	-421.975464	147.106964	-188.778503
7299.963720	-420.105225	146.931625	-186.908249
7299.967044	-418.234955	146.464066	-183.752197
7299.970380	-417.299835	145.119812	-180.362350
7299.973715	-414.611328	144.710693	-178.375214
7299.977043	-414.026886	143.834015	-176.095856
7299.980378	-412.682617	143.950897	-173.933380
7299.983745	-411.221497	143.308014	-171.712448
7299.987052	-409.760376	142.665115	-169.608414
7299.990378	-408.649933	142.255981	-166.861481
7299.993711	-406.312073	141.028641	-164.114563
7299.997927	-402.513184	140.385742	-160.374039
7300.001258	-402.805389	140.151947	-159.029800
7300.004698	-401.402710	139.742844	-156.867325
7300.007979	-400.467590	139.333725	-154.529510
7300.010803	-399.123322	138.924606	-152.717712
7300.014168	-397.720612	138.281708	-151.665680
7300.017471	-396.434845	137.638809	-149.444763
7300.020805	-396.025696	137.112793	-148.743423
7300.023714	-395.967255	136.528351	-147.048508
7300.027064	-394.798370	135.827011	-145.821152
7300.030374	-394.447693	135.651657	-143.892456
7300.033709	-393.337219	134.891876	-142.665115
7300.037045	-392.109863	134.307419	-142.665115
7300.040372	-392.343658	134.132080	-141.262421
7300.043706	-391.408539	133.547623	-140.035065
7300.047042	-390.473419	133.255417	-139.041489
7300.050373	-390.122711	133.313843	-139.099945
7300.053711	-389.888947	132.729401	-138.457047
7300.057036	-389.947388	132.787842	-138.457047
7300.060371	-390.648743	132.028061	-137.580353
7300.063701	-389.713623	131.677383	-137.931030
7300.067042	-389.129150	131.502045	-137.814148
7300.070399	-388.603149	130.976028	-137.405029
7300.073706	-389.655151	131.092926	-137.112793
7300.077034	-388.310944	130.625366	-136.937469
7300.080378	-388.252472	130.800705	-137.171249
7300.083716	-389.012268	130.391586	-137.112793
7300.087042	-389.187592	129.982468	-137.638809
7300.090377	-388.369385	130.566925	-137.580353
7300.093703	-388.953827	130.391586	-137.346573
7300.097037	-388.369385	130.450027	-137.814148
7300.101744	-388.953827	130.333130	-137.989487
7300.104663	-389.479828	130.976028	-138.106369
7300.107959	-390.005859	130.450027	-138.573929
7300.111338	-389.830505	130.800705	-138.573929
7300.114588	-389.713623	130.917603	-138.866165
7300.117878	-389.362946	130.683823	-138.515488
7300.120790	-390.414948	131.151382	-139.509064
7300.124121	-390.999420	131.151382	-139.392166
7300.127464	-391.116302	131.385162	-139.859741
7300.130788	-391.350067	130.859146	-140.561081
7300.133703	-392.285217	131.209808	-140.911743
7300.137036	-393.044983	131.677383	-142.197556
7300.140362	-393.044983	131.209808	-142.606659
7300.143724	-393.044983	131.151382	-143.308014
7300.147060	-393.746338	131.911163	-143.308014
7300.150367	-395.850372	131.502045	-144.593796
7300.153693	-395.149048	131.794281	-145.704269
7300.157046	-396.317932	131.911163	-147.223846
7300.160358	-397.837524	132.261841	-148.217422
7300.163693	-397.837524	132.320282	-149.444763
7300.167027	-399.298645	132.378723	-150.613678
7300.170366	-399.181763	132.554062	-152.600815
7300.173689	-401.753387	132.612503	-153.477509
7300.177027	-402.104034	132.554062	-154.821747
7300.180360	-403.214508	133.080063	-156.575104
7300.183692	-404.850952	132.846283	-158.679138
7300.187045	-405.786072	133.021622	-161.367615
7300.190358	-406.838074	133.080063	-163.120987
7300.193692	-409.585052	133.372299	-165.341904
7300.197026	-411.630615	133.489197	-167.445938
7300.200356	-413.150208	134.424316	-169.374634
7300.203694	-414.436005	133.781403	-173.115128
7300.207027	-415.195801	134.190536	-175.043839
7300.210357	-417.767395	135.067215	-177.732330
7300.213690	-419.520752	135.125656	-179.894791
7300.218323	-423.202789	136.177673	-185.856216
7300.221217	-423.436584	136.586792	-188.603149
7300.224583	-425.949707	136.411453	-192.694336
7300.227892	-427.527771	137.112793	-194.272354
7300.231280	-429.047333	136.995911	-197.720642
7300.234630	-431.443604	137.872589	-201.578018
7300.237470	-432.670959	138.223267	-204.675629
7300.240800	-433.956757	139.392166	-207.948563
7300.244126	-436.177673	139.918167	-209.818817
7300.247438	-437.872589	140.151947	-214.085342
7300.250351	-439.216858	140.911743	-217.475159
7300.253685	-441.613098	141.437759	-219.812958
7300.257020	-443.249573	141.846878	-224.021027
7300.260353	-445.353607	142.255981	-227.819992
7300.263684	-446.171814	142.548218	-232.203384
7300.267017	-448.743439	143.366455	-235.067200
7300.270347	-450.496765	143.892456	-238.983063
7300.273694	-452.600800	144.652252	-243.307999
7300.277014	-455.815308	144.769150	-247.048523
7300.280351	-457.451782	145.821152	-251.841019
7300.283680	-460.257141	145.821152	-255.289322
7300.287015	-460.549408	146.230286	-260.198700
7300.290352	-464.465240	146.639389	-266.101685
7300.293680	-465.283447	147.340744	-270.952667
7300.297017	-468.205750	147.165405	-275.978973
7300.300383	-471.127991	147.399185	-279.777893
7300.303682	-473.582703	148.275864	-286.090027
7300.307019	-474.167145	148.275864	-291.876099
7300.310380	-477.147858	148.684982	-298.012848
7300.313681	-479.544128	149.035660	-303.506744
7300.317033	-482.115753	149.035660	-310.578613
7300.320349	-485.271790	149.094086	-315.429565
7300.323683	-487.492706	149.737000	-323.904144
7300.327868	-492.577454	149.853882	-336.762115
7300.331225	-494.330780	150.789017	-344.360016
7300.334582	-496.317963	150.789017	-351.139679
7300.337938	-498.480408	150.789017	-358.679138
7300.341278	-500.409119	150.379898	-366.043243
7300.344098	-503.506714	151.431900	-373.874939
7300.347433	-505.552307	151.899475	-381.940399
7300.350765	-507.364136	151.665680	-389.421387
7300.354144	-510.111053	151.548798	-398.129761
7300.357438	-511.455292	152.250153	-404.792511
7300.360345	-512.682617	152.425476	-413.267090
7300.363675	-515.780273	152.717712	-421.215668
7300.367010	-516.481567	152.834595	-430.917603
7300.370340	-518.118042	153.711288	-439.684387
7300.373675	-519.637634	153.360611	-448.626526
7300.377006	-521.800110	153.886612	-457.510223
7300.380342	-522.092346	154.061951	-466.569275
7300.383677	-524.605530	153.185272	-476.855652
7300.387005	-525.131531	153.652832	-485.330200
7300.390352	-525.715942	154.237289	-494.973694
7300.393680	-526.417297	154.295731	-504.383423
7300.397039	-528.521362	154.295731	-514.319153
7300.400339	-528.872009	154.061951	-524.430176
7300.403678	-527.995361	153.594391	-534.716553
7300.407011	-530.216248	153.360611	-545.236694
7300.410336	-530.333130	153.126831	-555.406189
7300.413670	-530.859131	152.308594	-565.049683
7300.417007	-530.800720	152.074814	-576.271179
7300.420334	-531.034485	151.899475	-587.025146
7300.423665	-530.625366	150.321442	-599.123352
7300.427004	-530.683777	150.087662	-610.052612
7300.430334	-529.982483	149.912338	-622.150818
7300.433672	-531.385132	148.743423	-634.073608
7300.437866	-529.339539	145.996506	-658.386902
7300.441301	-527.177124	144.418472	-670.368164
7300.444585	-524.547058	142.606659	-683.635254
7300.447858	-523.787231	141.437759	-696.843933
7300.451180	-521.916992	139.333725	-710.111023
7300.454088	-520.222107	137.580353	-721.274109
7300.457426	-517.650513	136.879013	-734.774963
7300.460755	-515.780273	133.898300	-748.509644
7300.464108	-512.448853	131.852722	-762.068970
7300.467446	-508.825256	130.040909	-774.284058
7300.470335	-506.604340	128.053772	-788.369385
7300.473668	-501.928711	126.241959	-800.759766
7300.477000	-498.188202	123.787262	-817.416687
7300.480351	-494.330780	121.274117	-830.216187
7300.483693	-489.362946	118.410286	-842.372925
7300.487000	-483.167755	116.364693	-857.977783
7300.490330	-479.310333	113.909996	-871.244934
7300.493660	-471.595581	111.396851	-884.570435
7300.496995	-466.510834	109.000587	-897.428406
7300.500329	-459.906494	106.721207	-910.461731
7300.503660	-454.120392	104.149612	-924.371704
7300.506997	-446.054932	100.818237	-937.112793
7300.510330	-440.327301	98.831093	-950.146118
7300.513660	-431.911194	96.317940	-962.010498
7300.516991	-425.073059	92.752777	-974.985413
7300.520323	-416.656921	90.298065	-986.908264
7300.523659	-409.701904	87.142021	-999.707764
7300.526997	-400.350677	84.219757	-1011.981323
7300.530325	-390.940979	80.946815	-1024.488647
7300.533658	-381.531250	77.849213	-1036.353027
7300.536995	-371.887787	74.926941	-1047.925171
7300.540321	-363.296326	71.186440	-1059.088257
7300.543655	-352.425476	67.796616	-1070.894287
7300.546993	-341.729980	64.640564	-1081.005249
7300.550347	-330.917603	59.672707	-1106.253662
7300.554508	-309.117493	51.431911	-1111.513672
7300.557863	-298.071320	47.632961	-1122.618408
7300.561165	-285.622467	43.424900	-1133.430786
7300.564524	-274.284058	38.398598	-1140.561157
7300.567867	-261.484497	34.132088	-1152.834595
7300.570773	-248.801880	28.988895	-1159.146729
7300.574116	-235.593231	24.371712	-1169.199219
7300.577433	-222.618347	19.637638	-1175.979004
7300.580744	-209.585052	14.962010	-1184.278198
7300.583653	-195.967270	9.877264	-1188.077148
7300.587018	-182.466400	4.967855	-1196.434937
7300.590323	-168.673294	-1.052016	-1200.526001
7300.593649	-153.828171	-5.902981	-1211.922852
7300.596983	-140.035065	-10.520164	-1214.260620
7300.600343	-125.891289	-15.429573	-1216.364624
7300.603653	-111.279953	-20.163647	-1223.845703
7300.606979	-96.493279	-24.430157	-1228.053711
7300.610321	-81.706604	-29.222675	-1227.352417
7300.613653	-67.738167	-33.839859	-1230.216187
7300.616980	-51.957916	-38.106369	-1234.015137
7300.620313	-37.580360	-42.782001	-1233.898315
7300.623651	-22.559906	-47.165401	-1234.950317
7300.626982	-8.533022	-51.431911	-1237.521973
7300.630337	6.954997	-54.997082	-1236.002319
7300.633643	21.040327	-59.146698	-1236.060791
7300.636976	35.476330	-63.296318	-1234.833374
7300.640317	49.912331	-66.101692	-1232.378784
7300.643654	63.822330	-70.075974	-1230.450073
7300.646981	78.550552	-73.524254	-1228.579834
7300.650313	91.817650	-77.030975	-1224.722412
7300.653646	105.610748	-80.245468	-1221.098755
7300.656977	119.170082	-83.459969	-1216.656982
7300.660315	132.554062	-86.499123	-1211.163086
7300.663655	145.236710	-89.479836	-1205.376953
7300.668273	171.303329	-95.324371	-1196.668579
7300.671178	184.044418	-98.305084	-1189.655151
7300.674603	195.791931	-100.818237	-1184.687378
7300.677906	208.357697	-103.565170	-1176.914062
7300.681249	219.520752	-106.253647	-1170.777344
7300.684491	231.268265	-109.292816	-1162.536499
7300.687411	241.554642	-111.864410	-1153.828125
7300.690726	253.243713	-114.494446	-1145.470581
7300.694067	263.939209	-116.773819	-1137.405029
7300.697399	273.758026	-119.403862	-1127.936890
7300.700307	284.044403	-122.033897	-1116.423096
7300.703645	294.915253	-125.014618	-1108.883667
7300.706977	304.324951	-127.410873	-1098.655762
7300.710328	313.325562	-129.924026	-1089.596802
7300.713639	322.735229	-131.560486	-1076.855713
7300.716974	331.443604	-134.190536	-1066.861450
7300.720306	340.035065	-136.002335	-1057.510132
7300.723653	348.568085	-137.814148	-1043.950928
7300.726969	355.639984	-139.684387	-1035.125610
7300.730304	363.296326	-141.905319	-1022.150818
7300.733635	371.127991	-143.366455	-1013.325500
7300.736971	378.082977	-144.827576	-998.655823
7300.740334	385.271759	-145.996506	-986.849792
7300.743637	391.057861	-147.516068	-975.511353
7300.746973	397.077728	-148.509644	-963.413208
7300.750305	404.909424	-150.496780	-952.717712
7300.753660	410.344849	-151.139694	-939.801331
7300.756969	415.488007	-151.139694	-929.047302
7300.760301	421.098755	-152.367035	-917.299866
7300.763632	424.780853	-152.717712	-904.792480
7300.766967	430.274689	-152.600815	-891.934570
7300.770300	433.781433	-153.594391	-880.946838
7300.773639	438.281738	-153.185272	-868.790161
7300.776964	442.606628	-153.360611	-857.334900
7300.780299	445.996460	-153.068375	-845.353577
7300.783646	449.327911	-152.893036	-834.716492
7300.787830	453.945068	-152.600815	-810.695435
7300.791141	456.691986	-153.477509	-799.181763
7300.794506	458.912903	-152.776154	-789.012268
7300.797844	461.776733	-152.600815	-778.375183
7300.801173	463.237854	-151.665680	-767.796631
7300.804057	465.692566	-151.256577	-756.575134
7300.807415	467.971954	-151.081238	-745.938049
7300.810755	468.790192	-150.964340	-733.138489
7300.814139	469.433075	-150.379898	-724.605530
7300.816966	470.952667	-150.555237	-715.254272
7300.820300	472.063110	-150.204559	-704.675598
7300.823627	474.108704	-149.503220	-694.213928
7300.826991	473.232025	-149.912338	-682.758606
7300.830296	474.868500	-149.152542	-673.056702
7300.833625	475.452942	-149.035660	-662.711853
7300.836961	475.862061	-149.327881	-653.360596
7300.840306	476.154266	-148.509644	-643.950867
7300.843630	476.212738	-148.451202	-632.729370
7300.846956	475.452942	-148.100525	-623.670410
7300.850292	476.855652	-148.042084	-615.780273
7300.853623	476.329620	-147.457626	-605.610779
7300.856956	476.154266	-147.457626	-597.662170
7300.860289	475.336060	-147.165405	-586.499146
7300.863628	475.160736	-146.171829	-579.427246
7300.866961	474.400940	-145.645828	-571.127991
7300.870305	474.284027	-145.879608	-562.185852
7300.873623	471.887787	-144.126236	-553.477478
7300.876956	471.011108	-145.061356	-545.236694
7300.880341	470.192871	-143.892456	-536.820557
7300.883624	470.894196	-143.366455	-529.339539
7300.886959	468.790192	-142.431335	-521.215698
7300.890294	469.316193	-142.548218	-513.851562
7300.894930	467.153687	-140.268845	-499.415527
7300.897802	465.809479	-138.983047	-493.044983
7300.901183	464.699036	-138.340149	-486.148437
7300.904504	463.939240	-137.697250	-479.018127
7300.907882	462.244324	-137.054367	-471.770905
7300.910735	462.302734	-136.645233	-466.393890
7300.914081	461.250732	-135.476334	-460.783142
7300.917367	459.906494	-134.482758	-454.821716
7300.920713	458.445374	-133.664520	-448.100525
7300.923616	456.516663	-133.080063	-443.834015
7300.926970	456.165985	-131.502045	-439.099945
7300.930287	455.230865	-131.385162	-432.670959
7300.933626	454.120392	-130.391586	-427.177094
7300.936958	452.834595	-129.690247	-423.319672
7300.940281	451.490356	-129.105789	-417.825836
7300.943618	450.847443	-127.995323	-411.805969
7300.946955	448.918762	-127.527763	-408.649933
7300.950287	447.749847	-126.066628	-403.156036
7300.953621	446.756256	-125.949738	-399.064880
7300.956962	445.061340	-125.306831	-395.382812
7300.960286	443.600220	-125.248398	-389.947388
7300.963613	442.606628	-123.670364	-385.914673
7300.966947	442.548218	-123.670364	-381.589722
7300.970294	440.035065	-123.261246	-376.504974
7300.973611	438.340149	-122.443024	-373.465790
7300.976951	438.398590	-122.150787	-369.023956
7300.980278	436.762146	-122.033897	-366.101685
7300.983615	435.651672	-121.274117	-363.004089
7300.986980	435.651672	-120.455872	-358.679138
7300.990283	434.073639	-120.280540	-356.282867
7300.993614	431.852722	-119.929863	-351.607239
7300.996947	431.443604	-119.929863	-348.509644
7301.001170	428.930481	-118.994736	-343.132660
7301.004507	428.404419	-118.468735	-339.450623
