time (s)	magX	magY	magZ
10146.212313	-248.589203	122.488831	174.697968
10146.215638	-246.718933	121.436821	171.132812
10146.218976	-244.731812	120.267914	168.268982
10146.222306	-243.095306	119.508118	164.820709
10146.225642	-240.699066	118.105431	161.138672
10146.229895	-237.016998	116.352081	155.644806
10146.233179	-235.263641	115.416954	152.956329
10146.236526	-234.153198	114.364929	149.683380
10146.239820	-232.575165	113.020691	146.468872
10146.243177	-231.055573	112.728462	144.247955
10146.246064	-229.360657	111.442657	141.501038
10146.249406	-226.964386	111.033546	138.520325
10146.252769	-225.561707	110.507530	135.948700
10146.256093	-224.743469	108.871063	133.669342
10146.259429	-223.107010	107.877502	131.915985
10146.262315	-220.710739	107.819054	128.818390
10146.265637	-219.541855	106.533249	126.071449
10146.268966	-219.191177	106.007248	123.616753
10146.272306	-216.619568	105.422791	122.038719
10146.275635	-214.924652	104.429222	119.934700
10146.279002	-214.457092	104.370773	118.707344
10146.282307	-212.820633	103.318764	116.953972
10146.285632	-211.593277	102.500519	115.200615
10146.288974	-209.839905	102.266739	112.453682
10146.292307	-208.729446	100.980949	110.641884
10146.295631	-207.502090	100.630272	110.408104
10146.298968	-206.274734	100.104271	108.187172
10146.302296	-204.521378	99.169144	106.258476
10146.305636	-204.404480	98.701584	105.031120
10146.308967	-203.703156	98.409355	103.862221
10146.312300	-201.423782	98.000237	101.933525
10146.315636	-200.605545	97.181999	100.998390
10146.318964	-199.728851	96.948219	99.420372
10146.322304	-197.917068	96.831329	98.193016
10146.325635	-197.449509	95.662422	97.783897
10146.328965	-196.806610	95.603973	96.381218
10146.332300	-197.215714	95.019516	95.153862
10146.335631	-196.339050	94.551956	93.692726
10146.338964	-195.345459	94.844185	93.225166
10146.342305	-194.351898	93.441498	91.939354
10146.346475	-191.371185	92.857040	91.121132
10146.349870	-191.312729	92.973930	89.952217
10146.353206	-191.078964	92.915482	89.075554
10146.356568	-190.728271	92.331032	89.017097
10146.359887	-189.325577	91.921921	87.906639
10146.362761	-190.026947	91.863472	88.081978
10146.366070	-188.741150	91.629684	87.555962
10146.369376	-187.981354	91.454353	86.036385
10146.372712	-187.279999	91.395905	85.335045
10146.376052	-187.747559	91.103683	85.218147
10146.378956	-186.695557	91.162125	84.166145
10146.382290	-186.111099	90.986794	84.283028
10146.385624	-185.877319	91.045235	84.341469
10146.388965	-185.175980	90.519226	83.523232
10146.392288	-185.059082	90.343887	82.646553
10146.395634	-184.416183	90.285446	82.412773
10146.398959	-183.714828	90.519226	82.237434
10146.402288	-183.656403	90.168556	82.880333
10146.405623	-183.948624	90.460777	82.763435
10146.408960	-184.299286	90.285446	81.536095
10146.412293	-183.948624	90.519226	81.185417
10146.415655	-183.714828	90.694565	80.776299
10146.419018	-183.188828	89.934776	80.367195
10146.422282	-183.305725	90.226997	80.834755
10146.425623	-184.123962	89.934776	80.893181
10146.428955	-183.481064	90.343887	80.367195
10146.432317	-182.545929	90.811455	81.360756
10146.435620	-182.370605	90.811455	82.062096
10146.438964	-183.773285	90.928345	82.062096
10146.442285	-182.896606	91.220573	81.419197
10146.445619	-182.429047	90.986794	81.769875
10146.448946	-183.422623	91.454353	82.354317
10146.452284	-183.071930	91.454353	81.886757
10146.455617	-183.773285	92.038811	83.289452
10146.460325	-184.240860	93.207718	83.932350
10146.463224	-184.533081	92.798592	84.692131
10146.466595	-186.111099	93.266159	85.159706
10146.469823	-185.935776	93.032379	85.218147
10146.473137	-186.111099	93.383049	86.270164
10146.476088	-186.812439	94.318176	85.568825
10146.479369	-186.812439	95.194855	87.380623
10146.482708	-187.279999	95.077965	87.731300
10146.486040	-187.513794	95.603973	88.783318
10146.489398	-188.507355	95.428635	89.017097
10146.492282	-188.799591	96.363770	90.069115
10146.495619	-190.085373	96.714432	90.828896
10146.498941	-190.962067	97.824890	91.238014
10146.502327	-190.903625	98.000237	91.354912
10146.505613	-191.429626	97.883339	92.991386
10146.508950	-191.897186	98.876915	93.692726
10146.512276	-192.540085	99.110695	94.452522
10146.515613	-193.709000	100.454933	96.205864
10146.518969	-195.579254	100.513382	96.790337
10146.522275	-194.819458	101.214729	97.374779
10146.525612	-195.754593	102.032959	99.186592
10146.528947	-196.689713	102.325188	99.712593
10146.532274	-197.391052	103.026527	101.582848
10146.535610	-198.676865	103.961655	102.050423
10146.538941	-199.787323	104.896782	104.154442
10146.542280	-200.722443	104.896782	105.148003
10146.545611	-201.131546	106.299469	106.200035
10146.548946	-202.651138	107.176155	109.180748
10146.552276	-202.709595	108.169724	110.291206
10146.555610	-204.638275	109.221741	111.401665
10146.558948	-205.748734	109.689308	113.447258
10146.562278	-206.800766	110.975098	114.674614
10146.565609	-207.852783	111.501106	116.427956
10146.569003	-208.671005	111.910225	119.058006
10146.572282	-210.599701	113.371361	120.869820
10146.576875	-212.879074	116.059853	124.493431
10146.579782	-214.281769	116.878075	127.123466
10146.583147	-214.983093	118.222328	129.344391
10146.586484	-217.320908	119.391235	131.682220
10146.589857	-218.256027	120.092583	133.786255
10146.592761	-219.892517	120.793922	135.948700
10146.596049	-220.593872	122.021271	139.104767
10146.599388	-221.470535	123.774635	142.085480
10146.602699	-223.165451	124.592880	144.247955
10146.606048	-224.918808	126.112442	146.118195
10146.608939	-227.022858	127.106018	148.982025
10146.612266	-228.717773	128.099594	152.371857
10146.615602	-230.237366	129.736069	155.644806
10146.618935	-231.347809	131.372528	158.742401
10146.622270	-233.159607	132.424545	161.547791
10146.625601	-235.497406	133.710342	166.223419
10146.628933	-235.789642	135.639038	168.210571
10146.632265	-237.543030	136.749496	171.951050
10146.635619	-238.711914	138.269073	176.626678
10146.638934	-240.991302	139.671768	180.074951
10146.642262	-241.867950	140.548447	183.581696
10146.645599	-244.205780	142.418701	186.913055
10146.648939	-245.783783	144.347397	191.647125
10146.652327	-247.946289	145.165634	196.147430
10146.655605	-248.238495	146.802109	199.829498
10146.658933	-250.342560	148.555466	204.855774
10146.662265	-252.621887	150.834839	208.830078
10146.665599	-253.498596	151.886856	213.914825
10146.668933	-255.076599	154.049316	218.415100
10146.672261	-256.245544	155.335129	223.792084
10146.675598	-258.992432	156.913147	228.584625
10146.678929	-258.700226	158.432724	232.675781
10146.682268	-261.330261	160.770538	238.461853
10146.685594	-262.908295	162.699249	243.955750
10146.688933	-264.427856	164.335709	249.449585
10146.693136	-267.057922	168.368439	261.313995
10146.696519	-268.051483	170.355576	267.216980
10146.699858	-271.149109	172.284286	272.769287
10146.703131	-270.856873	174.680542	280.484100
10146.706441	-273.603790	175.791000	285.919525
10146.709389	-273.077789	177.836578	292.056274
10146.712695	-275.590942	179.414612	298.777466
10146.716015	-276.526062	180.992630	307.076721
10146.719344	-276.642944	183.914902	314.207031
10146.722723	-277.168945	185.668259	321.337372
10146.725593	-277.636505	188.122971	328.701508
10146.728926	-278.162537	190.051666	334.838257
10146.732258	-280.149658	191.629700	343.079041
10146.735586	-279.389893	193.383041	352.371857
10146.738949	-281.493927	194.844177	358.976196
10146.742260	-279.915894	196.889771	366.807892
10146.745593	-279.915894	198.643127	375.107147
10146.748922	-280.500366	200.864059	384.399933
10146.752255	-279.857452	201.565399	393.517395
10146.755592	-279.506775	203.727875	401.582855
10146.758921	-279.974335	205.188995	410.875702
10146.762253	-279.214539	206.650146	420.869812
10146.765617	-277.578094	209.280197	430.747070
10146.768919	-276.759857	210.507553	440.332123
10146.772256	-276.233826	211.501114	449.800293
10146.775588	-274.129822	213.371353	460.612640
10146.778929	-273.779144	214.540283	468.035187
10146.782257	-270.681549	215.416946	479.432037
10146.785592	-268.577484	216.936523	488.900238
10146.788914	-265.362976	217.871658	497.959198
10146.792249	-263.200500	219.215897	507.778046
10146.795615	-260.862701	220.326355	518.882690
10146.798912	-258.700226	221.086151	528.876770
10146.802266	-255.602631	221.845947	539.922974
10146.806859	-247.361847	223.073273	560.028198
10146.809789	-243.562866	223.307068	569.554749
10146.813100	-240.231506	223.833069	581.769836
10146.816460	-234.854523	223.657730	591.764038
10146.819795	-229.594421	223.365509	599.537231
10146.822700	-224.860367	222.897949	609.414490
10146.826047	-219.191177	223.482407	620.928223
10146.829371	-214.047974	222.255051	630.630188
10146.832682	-208.028107	221.787491	640.565857
10146.836004	-201.949799	221.144592	650.969116
10146.838952	-195.111694	219.332779	662.482910
10146.842251	-187.572235	219.274338	670.723694
10146.845581	-180.792587	217.930084	681.652954
10146.848908	-172.727112	215.884506	690.185974
10146.852266	-164.603210	214.364914	697.900757
10146.855579	-156.537750	212.670029	708.537842
10146.858910	-148.121613	210.916641	717.830627
10146.862242	-139.121033	209.280197	725.779236
10146.865574	-129.711334	206.825485	735.072021
10146.868911	-121.119873	203.435638	741.384155
10146.872242	-111.301056	201.273163	751.085999
10146.875573	-101.365341	198.117126	756.696777
10146.878907	-90.845169	194.844177	765.814270
10146.882264	-80.091225	191.746582	772.535461
10146.885579	-69.687958	188.473633	778.263123
10146.888968	-59.226242	185.259155	784.633667
10146.892243	-47.712509	181.810867	788.315735
10146.895583	-37.250786	178.479492	793.517334
10146.898911	-25.620155	174.037628	800.238586
10146.902245	-13.872643	169.069794	802.751709
10146.905574	-2.417353	164.920166	808.420898
10146.908908	9.388607	160.712097	808.362427
10146.912240	21.545242	156.211807	812.687439
10146.915576	34.052547	151.886856	815.726624
10146.918905	45.157166	147.561890	816.077271
10146.923110	69.879547	137.859955	819.408630
10146.926486	81.217949	133.125885	816.544861
10146.929786	92.907021	128.450256	817.012390
10146.933160	105.823441	123.540855	815.843445
10146.936499	117.629402	118.339218	814.791443
10146.939342	128.617126	112.377785	811.693909
10146.942652	139.780182	107.176155	811.401611
10146.945992	151.118591	103.260315	807.778015
10146.949332	161.989426	98.234016	804.096008
10146.952661	173.327820	92.681702	801.933533
10146.955566	183.205093	87.772293	793.342102
10146.958900	195.011047	82.453766	790.945801
10146.962255	204.596085	77.193687	785.802612
10146.965567	215.466934	72.576500	780.834717
10146.968906	224.350616	67.316422	771.541931
10146.972236	233.234314	62.465458	764.236206
10146.975566	242.293350	58.198948	760.320435
10146.978923	251.001709	52.763535	750.384644
10146.982234	259.184021	48.087902	742.786804
10146.985562	267.775513	43.120049	736.416260
10146.988901	275.490295	38.269085	727.532593
10146.992233	283.731079	33.651901	719.350220
10146.995566	290.686096	29.210056	709.472961
10146.998899	297.757965	25.118879	701.290588
10147.002231	305.355865	21.144596	693.751160
10147.005599	312.018646	16.644304	682.295837
10147.008895	316.986511	12.436239	672.827698
10147.012229	322.012787	8.403509	662.775085
10147.015562	327.740448	4.838343	652.430298
10147.018898	333.584991	0.922504	641.617859
10147.022229	339.020416	-2.584218	630.454834
10147.025560	343.286896	-6.383165	620.635986
10147.028894	345.916962	-10.299005	608.888489
10147.032226	350.300354	-13.396607	599.186584
10147.035562	353.105713	-16.201984	588.198853
10147.039878	360.586731	-22.747864	566.164917
10147.043090	361.930969	-24.968788	554.884949
10147.046411	363.742798	-28.709290	544.072571
10147.049756	367.074158	-30.637987	532.734192
10147.053091	368.827515	-33.209583	521.512695
10147.055984	369.061310	-36.073406	510.232758
10147.059320	370.639343	-37.885212	500.121735
10147.062670	371.925140	-39.930798	490.302887
10147.066032	373.210937	-42.151722	478.438507
10147.069333	372.684906	-43.671299	469.437897
10147.072223	372.042023	-45.950672	457.690430
10147.075558	371.048462	-47.879368	447.520905
10147.078897	373.152496	-48.872936	439.397003
10147.082220	371.165344	-50.567852	428.876831
10147.085554	371.516022	-51.795204	417.772247
10147.088890	370.113342	-53.840790	408.304047
10147.092251	369.178223	-55.301926	398.426819
10147.095558	367.833954	-56.529278	390.069153
10147.098892	367.483307	-57.815075	380.367157
10147.102220	365.437714	-58.750206	371.775726
10147.105549	363.801239	-59.568439	362.307587
10147.108886	360.469849	-61.088017	354.066803
10147.112221	359.593170	-61.964695	346.819550
10147.115560	358.073578	-62.782928	338.111206
10147.118884	356.378662	-63.659615	330.630188
10147.122217	355.385101	-64.302513	321.395844
10147.125553	350.943237	-64.828522	314.090179
10147.128885	349.131439	-65.529869	305.557159
10147.132221	348.196320	-65.705200	298.485229
10147.135574	344.338928	-66.231209	291.764038
10147.138886	343.812927	-66.640327	284.984375
10147.142222	340.130859	-66.757217	277.211151
10147.145551	337.325500	-67.633896	270.782135
10147.148882	334.753876	-67.867683	263.944031
10147.153511	331.013367	-67.926132	250.910736
10147.156419	328.324890	-68.393692	243.371277
10147.159773	325.344177	-69.036591	237.818970
10147.163140	322.071259	-68.335243	232.325104
10147.166473	318.856750	-68.685913	225.896118
10147.169324	318.096954	-68.452133	220.519135
10147.172650	315.583801	-69.036591	215.375946
10147.175970	312.369324	-69.387260	210.524994
10147.179327	309.271729	-69.737930	205.148010
10147.182636	307.167694	-68.802803	200.823059
10147.185541	304.829865	-69.153481	196.673431
10147.188877	302.608948	-69.211929	191.296478
10147.192208	298.868439	-69.211929	186.328613
10147.195540	296.530640	-68.569023	181.360748
10147.198877	294.543488	-68.452133	178.029388
10147.202209	291.095215	-68.159912	173.938171
10147.205544	288.523621	-68.276802	170.431488
10147.208870	286.185791	-68.452133	165.580505
10147.212210	284.490875	-68.335243	161.723114
10147.215545	280.341248	-67.809235	158.917755
10147.218876	278.880127	-67.984573	154.826569
10147.222211	276.016296	-67.458565	151.495178
10147.225551	273.561615	-67.809235	148.572906
10147.228882	271.632904	-66.815666	144.715515
10147.232213	269.295105	-67.049446	141.559479
10147.235546	267.249512	-66.815666	138.812531
10147.238873	264.677917	-66.815666	136.182495
10147.242204	262.456970	-66.231209	132.909546
10147.245541	261.288086	-66.055870	129.870392
10147.248870	259.417847	-65.997429	128.409271
10147.252208	256.729370	-65.471420	125.194771
10147.255540	254.274643	-66.055870	122.506294
10147.258867	253.105728	-65.062302	120.460701
10147.262206	250.592575	-64.711632	117.596870
10147.266443	247.436539	-64.302513	113.622581
10147.269800	245.449387	-64.127174	110.583427
10147.273131	243.286911	-64.185623	108.420952
10147.276462	240.949097	-63.893394	106.609154
10147.279714	239.195740	-62.899822	104.972679
10147.282627	238.143723	-63.601166	102.225746
10147.285959	237.150162	-62.899822	100.121712
10147.289291	235.104568	-63.250492	98.952812
10147.292621	233.994095	-62.724487	98.309898
10147.295965	232.006973	-62.432259	95.562981
10147.298862	230.195160	-62.315369	93.984947
10147.302198	229.084686	-62.081585	92.699150
10147.305534	228.091125	-61.614025	91.238014
10147.308883	226.805313	-61.438690	90.536674
10147.312203	224.467499	-61.380241	88.841759
10147.315535	223.181717	-60.854237	87.848198
10147.318893	222.655701	-61.029572	85.802605
10147.322203	221.136124	-60.912678	84.224571
10147.325536	219.441208	-60.912678	83.581673
10147.328868	218.856750	-60.503567	82.354317
10147.332196	217.687851	-59.977554	80.893181
10147.335533	216.460495	-60.386673	79.841179
10147.338892	215.233154	-60.152893	79.958061
10147.342199	213.772003	-60.152893	78.204704
10147.345528	213.947342	-59.919113	76.685127
10147.348862	212.427765	-59.276211	76.918907
10147.352208	211.609528	-59.217766	75.340889
10147.355530	210.908188	-60.152893	74.581093
10147.358859	210.382172	-59.919113	74.113525
10147.362194	208.336594	-59.509991	73.645966
10147.365526	208.044357	-59.860664	72.652390
10147.368864	207.985916	-59.568439	72.477058
10147.372194	207.576797	-59.393101	72.243279
10147.375530	206.875458	-59.217766	71.132820
10147.379783	205.005203	-58.867096	70.080795
10147.383152	205.180542	-58.925537	69.437904
10147.386375	204.654541	-59.217766	69.963913
10147.389704	203.660965	-58.574867	68.853455
10147.393038	203.485626	-58.633312	69.145676
10147.396396	203.427185	-58.691757	68.152107
10147.399279	203.076508	-57.931965	68.035217
10147.402664	202.492065	-58.457973	68.035217
10147.406004	203.018066	-58.516422	67.742981
10147.409309	202.550507	-58.983986	68.385895
10147.412228	201.790710	-58.691757	67.801430
10147.415523	202.082947	-58.457973	67.275421
10147.418856	201.440033	-58.399532	67.333870
10147.422188	202.258270	-58.750206	67.275421
10147.425547	201.147812	-58.457973	66.749420
10147.428853	201.732269	-58.457973	67.275421
10147.432183	201.089371	-58.925537	67.684547
10147.435524	201.440033	-58.691757	67.801430
10147.438853	201.790710	-58.516422	67.100090
10147.442186	201.790710	-58.867096	67.392319
10147.445518	201.206253	-59.217766	67.509201
10147.448853	201.790710	-59.159321	67.918327
10147.452184	201.615387	-58.983986	67.742981
10147.455544	201.966049	-59.100876	68.678108
10147.458853	201.966049	-59.276211	68.152107
10147.462187	202.199829	-59.334660	67.976768
10147.465519	203.310287	-59.860664	68.502777
10147.468853	202.784286	-60.328224	69.087234
10147.472185	203.368729	-59.919113	68.444328
10147.475515	203.953201	-60.269783	70.431473
10147.478848	203.894745	-59.977554	69.671684
10147.482207	205.414322	-60.269783	70.899040
10147.485519	206.291000	-60.503567	71.074371
10147.488847	207.226135	-60.269783	71.600380
10147.492181	206.933899	-60.737347	72.243279
10147.496835	208.804153	-61.906254	73.587517
10147.499724	208.570374	-61.730915	74.230423
10147.503056	210.499069	-61.906254	75.925346
10147.506387	210.323746	-62.315369	75.340889
10147.509768	212.486206	-62.140034	76.392906
10147.512643	212.778442	-62.607597	77.269585
10147.516002	214.064240	-62.666039	77.970924
10147.519272	214.824020	-62.958267	79.373619
10147.522608	216.051376	-63.250492	80.074959
10147.525943	216.343597	-63.542721	81.652977
10147.528840	217.921631	-63.659615	82.646553
10147.532181	219.382767	-63.834946	84.341469
10147.535507	219.850327	-64.302513	85.159706
10147.538842	220.610123	-64.711632	86.737740
10147.542193	222.012802	-65.646759	88.081978
10147.545510	223.590820	-65.822090	89.133980
10147.548840	224.175293	-65.705200	91.062675
10147.552172	225.285751	-66.231209	92.582268
10147.555514	227.389771	-66.464989	93.634270
10147.558843	228.383331	-67.400116	94.744743
10147.562172	230.545822	-66.932556	97.024117
10147.565517	231.539398	-67.926132	97.900795
10147.568893	233.643417	-68.043022	99.946373
10147.572168	234.169449	-68.919693	102.401085
10147.575507	236.215027	-69.095039	104.329781
10147.578881	237.442383	-69.737930	105.790916
10147.582174	238.552841	-69.445709	108.128731
10147.585520	241.182892	-70.263939	109.765205
10147.588837	242.994675	-70.439278	112.219902
10147.592175	244.046692	-71.140617	114.499275
10147.595506	245.624725	-71.257507	117.129311
10147.598835	247.027405	-72.192635	119.642464
10147.602170	250.241913	-72.075745	121.454262
10147.605502	251.936829	-72.660202	124.668755
10147.608841	253.865509	-73.361542	127.181923
10147.613040	257.313782	-74.238228	132.441986
10147.616432	259.476257	-74.179779	135.539581
10147.619783	260.878967	-74.764229	138.344971
10147.623060	263.099915	-75.407135	142.260834
10147.626351	265.788391	-75.757805	145.533752
10147.629275	267.015747	-76.809822	148.748260
10147.632593	269.762634	-76.809822	151.787415
10147.635927	272.568054	-77.102051	156.521484
10147.639254	275.198059	-77.803391	159.268402
10147.642614	276.717651	-78.212509	163.125793
10147.645496	278.178802	-79.206085	166.048065
10147.648830	281.393280	-78.796959	170.080811
10147.652164	284.140228	-79.556755	174.697968
10147.655506	285.893585	-80.433434	179.139832
10147.658832	287.880707	-80.141205	182.938782
