time (s)	magX	magY	magZ
2871.107436	-290.728271	181.518646	-815.015625
2871.110830	-297.215698	185.434479	-803.326599
2871.113677	-302.943359	189.700989	-791.228394
2871.117056	-308.086548	194.025940	-779.422424
2871.120315	-312.645294	197.766464	-767.558044
2871.123645	-317.262482	200.688736	-754.758484
2871.126986	-322.639465	203.318741	-744.004517
2871.129904	-325.970825	207.526840	-731.029724
2871.133226	-329.828217	210.916641	-719.340576
2871.136558	-333.744049	212.377792	-708.060669
2871.139898	-337.659882	214.598709	-695.202698
2871.143226	-341.283539	217.170319	-683.572021
2871.146556	-344.088898	218.514542	-672.584351
2871.149887	-346.251343	221.203033	-661.713501
2871.153224	-349.875000	222.547272	-649.907532
2871.156552	-352.271240	223.891525	-638.744507
2871.159903	-353.849243	225.118881	-628.399658
2871.163222	-356.829987	225.001984	-617.353455
2871.166550	-358.291107	226.346237	-605.430603
2871.169884	-360.453583	227.222900	-595.319580
2871.173243	-361.914734	227.632034	-584.039612
2871.176567	-362.440735	228.274933	-572.934998
2871.179885	-363.492737	228.158035	-562.181030
2871.183223	-365.304565	227.982697	-551.193298
2871.186551	-366.648804	228.508698	-540.614746
2871.189884	-367.291687	228.859390	-529.626953
2871.193220	-368.051483	228.158035	-518.931458
2871.196557	-367.993042	228.391830	-507.476196
2871.199884	-368.752838	228.158035	-497.774231
2871.203218	-369.045044	227.807358	-486.844971
2871.206548	-367.993042	227.281372	-476.850800
2871.211232	-367.174805	226.580002	-456.511841
2871.214086	-368.109924	225.937119	-446.809906
2871.217507	-366.882568	226.170883	-436.991089
2871.220812	-365.830566	225.294220	-427.406036
2871.224064	-364.603210	224.300629	-418.288574
2871.227392	-364.018768	224.008423	-408.995758
2871.230308	-361.973175	223.423965	-399.644501
2871.233637	-361.271820	222.664169	-391.579041
2871.236972	-359.343140	222.138153	-382.987579
2871.240311	-357.005310	221.612152	-375.155884
2871.243214	-356.596191	220.677032	-366.973541
2871.246566	-354.784393	220.151031	-360.369232
2871.249875	-352.738800	218.923676	-352.245331
2871.253217	-351.102356	217.813217	-345.231873
2871.256546	-348.939850	217.111862	-338.452209
2871.259873	-347.654083	216.878098	-332.256989
2871.263212	-346.368256	216.118301	-325.652679
2871.266597	-343.562866	215.066269	-319.925018
2871.269879	-342.803101	214.131149	-313.379150
2871.273205	-340.640594	213.020691	-307.826843
2871.276539	-338.887238	211.851776	-302.391418
2871.279880	-336.081879	211.033539	-296.956024
2871.283215	-335.497406	209.455521	-291.403717
2871.286542	-333.627167	208.228165	-285.676056
2871.289911	-331.230927	206.883911	-281.058868
2871.293207	-328.893097	206.065689	-276.850800
2871.296541	-327.022858	204.253876	-271.356964
2871.299876	-325.795502	203.143417	-266.447540
2871.303224	-323.808350	202.266754	-262.005707
2871.306536	-322.464111	200.630264	-256.804047
2871.309872	-319.541840	199.227585	-251.543976
2871.313203	-318.957397	198.175552	-247.686584
2871.316539	-316.911804	195.662415	-242.894073
2871.319893	-314.047974	195.428635	-238.569122
2871.324147	-311.593292	192.447922	-229.977631
2871.327462	-309.723022	190.519226	-225.243561
2871.330722	-308.846344	189.174988	-220.977051
2871.334080	-306.157867	188.648972	-217.528778
2871.337382	-305.281189	186.895615	-212.502472
2871.340750	-303.761597	184.908478	-209.521759
2871.343638	-301.540680	184.616241	-205.372162
2871.346978	-299.845764	183.388901	-202.800568
2871.350335	-297.040375	181.635529	-198.124939
2871.353665	-295.813019	180.466629	-194.325989
2871.356539	-294.761017	179.531494	-190.702362
2871.359868	-292.423187	178.830154	-187.546326
2871.363240	-290.903625	177.602798	-184.448700
2871.366533	-288.741150	176.959900	-181.409546
2871.369868	-286.987762	175.966339	-178.136627
2871.373199	-285.059082	175.031204	-175.214355
2871.376553	-284.533081	173.570068	-172.408966
2871.379864	-282.545929	172.985626	-169.486694
2871.383197	-281.143250	172.518066	-167.967133
2871.386532	-278.630096	171.582932	-164.460403
2871.389874	-277.753418	170.823135	-162.823944
2871.393202	-275.766266	170.589355	-161.362793
2871.396539	-274.772705	169.362000	-159.317215
2871.399863	-272.551788	168.777557	-157.096283
2871.403192	-272.376434	168.543777	-155.109161
2871.406551	-270.856873	167.959320	-153.472687
2871.409861	-269.687958	167.199524	-152.245331
2871.413197	-268.577484	166.381302	-151.193298
2871.416526	-268.109924	165.504623	-149.030823
2871.419880	-266.415009	164.861710	-147.277466
2871.423197	-265.012329	164.160370	-146.809906
2871.426532	-265.012329	164.101929	-144.881210
2871.429860	-264.194092	162.816132	-144.764313
2871.433194	-262.908295	162.699249	-142.718719
2871.436525	-262.616089	162.173233	-141.608276
2871.441158	-261.856293	160.536758	-139.854919
2871.444071	-260.336700	159.367859	-138.335327
2871.447399	-259.869141	159.660080	-137.575531
2871.450833	-259.460022	158.724945	-135.880615
2871.454140	-258.583344	158.666519	-134.770172
2871.456979	-258.057312	157.439163	-133.893478
2871.460287	-257.239105	157.439163	-132.315460
2871.463638	-256.420868	156.796265	-131.614105
2871.466942	-256.070190	156.679367	-130.620544
2871.469862	-255.427307	156.270248	-128.867187
2871.473190	-255.368835	155.568909	-128.516510
2871.476528	-254.842834	154.867569	-127.230713
2871.479856	-253.498596	154.692230	-126.354034
2871.483193	-253.147919	153.932434	-126.295586
2871.486516	-253.323242	153.932434	-125.243568
2871.489861	-252.738800	153.464874	-124.366890
2871.493207	-252.329681	153.055756	-123.665543
2871.496516	-251.979004	153.289536	-123.723991
2871.499851	-250.927002	152.997314	-122.905754
2871.503192	-250.167206	152.529755	-122.788864
2871.506520	-250.459442	152.412857	-121.386177
2871.509850	-250.576324	152.529755	-121.269287
2871.513183	-249.875000	152.529755	-120.977058
2871.516605	-250.400970	153.114197	-121.152397
2871.519858	-250.108765	152.938858	-121.152397
2871.523187	-249.641205	152.821976	-121.035507
2871.526526	-249.991882	152.821976	-121.210838
2871.529858	-250.108765	153.055756	-121.503067
2871.533181	-250.576324	153.523331	-121.678398
2871.536544	-250.459442	153.757111	-121.970634
2871.539851	-250.400970	153.698654	-121.970634
2871.543186	-250.868561	154.283096	-122.788864
2871.546514	-250.693207	155.101349	-123.723991
2871.549856	-251.453003	154.809113	-124.483780
2871.554069	-252.738800	155.335129	-126.061806
2871.557390	-252.797272	154.984451	-126.354034
2871.560787	-253.381683	154.750671	-127.932053
2871.564101	-253.966156	155.335129	-128.399628
2871.567410	-255.310394	155.744247	-129.159409
2871.570279	-255.485748	155.919571	-130.737427
2871.573605	-255.719513	156.620911	-130.386749
2871.576941	-256.654633	156.562485	-131.964783
2871.580294	-257.355988	156.153351	-133.016800
2871.583605	-257.765106	157.146927	-133.133698
2871.586513	-259.167816	156.971588	-134.419495
2871.589850	-259.167816	157.088486	-135.003937
2871.593179	-260.278259	157.205383	-135.880615
2871.596512	-260.628937	157.556046	-137.049530
2871.599843	-261.680939	158.257385	-138.043091
2871.603180	-262.148499	158.374283	-139.621124
2871.606512	-263.375854	158.724945	-140.264023
2871.609841	-264.369415	158.608063	-140.965363
2871.613204	-265.596771	159.367859	-142.543396
2871.616543	-266.239685	159.543198	-143.127838
2871.619841	-267.174805	160.069199	-144.004532
2871.623197	-267.525482	160.595215	-145.231873
2871.626512	-268.986633	160.945877	-146.985229
2871.629843	-269.746399	161.939453	-148.095703
2871.633173	-270.389313	162.465469	-149.381500
2871.636513	-270.856873	163.049911	-151.251755
2871.639842	-272.727112	163.926590	-152.303772
2871.643170	-273.603790	164.569489	-153.881805
2871.646510	-274.889587	165.270844	-156.161163
2871.649839	-276.584534	166.147522	-158.265198
2871.653174	-276.818298	166.498184	-160.076996
2871.656511	-278.162537	168.134659	-162.648590
2871.659835	-279.331421	168.719116	-164.401947
2871.663169	-281.961487	168.835999	-166.915100
2871.667431	-283.597961	171.641388	-172.818085
2871.670763	-285.117523	172.576508	-175.740356
2871.674021	-286.987762	173.511627	-179.071747
2871.677356	-289.384033	173.920746	-182.461578
2871.680693	-290.845154	174.914322	-185.500732
2871.683591	-292.423187	176.024780	-188.423004
2871.686926	-293.182983	177.719696	-192.221954
2871.690254	-295.754578	178.888611	-195.670227
2871.693611	-298.033936	179.180832	-199.060059
2871.696494	-300.079559	180.466629	-202.040771
2871.699837	-301.423767	181.401749	-206.950165
2871.703192	-303.352478	181.460205	-210.690674
2871.706513	-304.872040	182.804443	-214.372742
2871.709837	-307.794312	184.090240	-218.814575
2871.713165	-310.249023	185.025375	-223.022644
2871.716498	-310.833496	185.259155	-227.289154
2871.719834	-313.288208	185.843597	-231.029663
2871.723164	-315.158447	187.187851	-235.237732
2871.726498	-317.145569	188.181412	-239.738007
2871.729829	-318.665161	189.058105	-243.829193
2871.733200	-321.002960	189.876328	-247.394348
2871.736501	-323.691467	190.986786	-252.479095
2871.739834	-325.211029	191.512802	-256.979401
2871.743169	-327.256622	192.564819	-261.771912
2871.746502	-328.600861	193.383041	-266.038422
2871.749829	-331.640045	194.201294	-271.298492
2871.753167	-332.808929	195.954636	-275.798798
2871.756491	-334.679199	196.539108	-281.117340
2871.759832	-335.848114	197.240433	-285.734497
2871.763160	-338.595032	197.941788	-291.462158
2871.766490	-340.056183	199.461380	-296.137787
2871.769827	-342.335510	200.338043	-302.040771
2871.773162	-344.147339	201.097824	-308.761963
2871.776504	-345.199371	202.617416	-313.788269
2871.780766	-349.641205	204.779892	-327.406036
2871.784006	-351.277679	205.598129	-333.951904
2871.787344	-352.855682	207.293045	-340.731598
2871.790676	-354.959717	207.526840	-347.452789
2871.794034	-355.719513	208.403503	-356.044250
2871.796921	-358.291107	210.332214	-363.291504
2871.800276	-360.044464	211.325775	-371.415375
2871.803606	-362.323853	212.436234	-379.188629
2871.806959	-363.492737	212.553131	-387.487854
2871.809831	-364.603210	213.429794	-395.962433
2871.813153	-366.239685	213.955811	-404.846130
2871.816484	-367.467041	214.774048	-413.671387
2871.819819	-368.928162	215.241608	-423.139526
2871.823154	-369.863281	215.416946	-432.490784
2871.826488	-371.207550	215.767624	-442.017365
2871.829821	-372.084229	216.001404	-452.479095
2871.833176	-372.902466	215.650742	-461.596558
2871.836491	-374.714264	215.241608	-472.292053
2871.839821	-374.246674	215.884506	-482.344696
2871.843155	-374.714264	215.826065	-492.689484
2871.846486	-375.532471	214.774048	-502.449860
2871.849819	-376.000061	214.657150	-513.203857
2871.853154	-376.233856	213.254456	-523.373352
2871.856487	-375.941589	212.962234	-534.419495
2871.859816	-376.233856	211.968674	-544.705872
2871.863159	-376.409180	210.858215	-555.050659
2871.866483	-375.415588	210.215317	-565.395569
2871.869814	-375.883179	209.104858	-576.149475
2871.873148	-373.779144	208.286606	-587.195679
2871.876507	-372.960876	207.234604	-597.482056
2871.879820	-373.136230	205.948792	-608.177551
2871.883153	-372.727112	203.494110	-618.989929
2871.886485	-370.155518	202.851181	-630.386780
2871.891108	-366.707245	198.935349	-652.245300
2871.894065	-364.194092	197.707993	-663.700623
2871.897357	-361.973175	195.837753	-675.740356
2871.900690	-359.226227	194.025940	-688.072327
2871.904073	-356.654633	192.506363	-697.715820
2871.906945	-353.732391	189.408768	-710.223145
2871.910298	-349.816528	187.187851	-722.204468
2871.913566	-345.783783	184.850021	-733.718140
2871.916919	-341.049744	181.635529	-746.108582
2871.920236	-336.549438	178.888611	-759.434143
2871.923146	-331.581573	175.498764	-770.947876
2871.926480	-327.431946	171.699814	-784.214966
2871.929850	-321.938110	168.134659	-795.202698
2871.933143	-316.561127	164.218811	-808.235962
2871.936480	-310.482819	160.010757	-820.041931
2871.939817	-303.995392	156.036469	-833.425964
2871.943145	-297.215698	150.893280	-845.524109
2871.946475	-290.202271	146.568314	-857.622253
2871.949806	-283.305725	141.366684	-870.772522
2871.953146	-274.831146	136.165039	-881.935547
2871.956469	-267.817688	130.145172	-894.559814
2871.959804	-258.817108	124.768204	-905.079956
2871.963152	-251.102356	118.865227	-917.821045
2871.966481	-241.809509	111.851784	-926.996948
2871.969811	-233.334930	106.182587	-938.043152
2871.973172	-223.457687	99.402924	-949.323120
2871.976472	-214.281769	93.383049	-958.849670
2871.979808	-203.761597	86.486496	-969.136108
2871.983141	-194.585663	79.005493	-977.259949
2871.986477	-184.591522	72.927177	-986.435852
2871.989807	-174.714264	66.556633	-995.728699
2871.993136	-164.077194	58.841850	-1003.560364
2871.996471	-154.024597	51.886852	-1010.807556
2871.999807	-142.627747	44.990299	-1016.184570
2872.004485	-120.769196	30.963417	-1028.691895
2872.007447	-109.606140	24.008419	-1034.244141
2872.010735	-98.910629	17.404095	-1041.549805
2872.014079	-87.455345	10.507542	-1044.705933
2872.017362	-76.935181	4.078552	-1048.680176
2872.020648	-65.479897	-2.876444	-1051.602417
2872.023568	-53.966156	-10.532785	-1055.342896
2872.026894	-42.627762	-17.020220	-1058.089844
2872.030222	-31.055576	-23.507652	-1060.018555
2872.033560	-19.834068	-30.053534	-1061.421265
2872.036467	-8.145000	-36.833195	-1064.285156
2872.039801	3.485626	-42.911510	-1064.168213
2872.043133	14.590244	-49.691174	-1064.694092
2872.046467	27.740448	-56.237053	-1063.817505
2872.049802	39.546410	-62.724487	-1061.713379
2872.053137	51.469261	-69.211929	-1060.661377
2872.056509	63.567451	-75.699356	-1060.310791
2872.059832	75.373413	-82.128349	-1058.557373
2872.063129	87.062485	-88.557335	-1055.635132
2872.066461	99.628235	-94.577209	-1050.959473
2872.069794	110.849747	-100.129517	-1048.154175
2872.073131	122.714149	-106.675400	-1042.484985
2872.076468	134.753891	-112.870598	-1036.815796
2872.079797	145.916946	-119.416481	-1032.899902
2872.083132	157.313797	-125.436356	-1026.704712
2872.086459	168.184631	-130.754868	-1018.989990
2872.089797	179.113907	-136.540970	-1012.093384
2872.093126	189.400284	-142.327057	-1004.787659
2872.096463	199.686676	-147.002686	-996.079407
2872.099796	209.622391	-151.853653	-988.539917
2872.103144	219.441208	-157.756622	-979.130188
2872.106459	228.558701	-162.549149	-968.376282
2872.109794	237.150162	-167.750793	-958.440552
2872.113133	245.800049	-171.608185	-949.556885
2872.117386	262.047882	-180.024323	-928.867187
2872.120714	268.126190	-184.115479	-919.457458
2872.123976	275.431854	-187.914429	-907.534668
2872.127318	282.094635	-190.778259	-895.611816
2872.130638	288.348267	-194.109650	-885.325378
2872.133998	294.075928	-197.090347	-874.045532
2872.136885	299.920441	-200.363297	-864.460388
2872.140237	305.238983	-202.291992	-852.596008
2872.143572	309.856171	-205.097382	-841.140747
2872.146944	314.414917	-207.435196	-830.328308
2872.149857	319.674988	-208.487198	-818.347046
2872.153126	323.064819	-210.532791	-807.242432
2872.156453	327.331329	-212.578384	-795.903992
2872.159791	331.714722	-213.630402	-784.273376
2872.163121	334.870789	-215.149963	-772.934998
2872.166454	338.319061	-216.669556	-762.122620
2872.169790	341.533539	-217.838470	-750.492004
2872.173122	344.748047	-218.832031	-739.738037
2872.176455	347.436523	-219.182693	-727.990540
2872.179782	350.066589	-220.293152	-715.424744
2872.183115	352.053711	-221.286743	-703.969482
2872.186450	354.099304	-221.286743	-692.163513
2872.189824	356.670898	-222.455643	-679.480896
2872.193122	358.950256	-222.572525	-667.207397
2872.196459	360.411407	-222.397202	-656.570312
2872.199790	360.878967	-222.747864	-643.829224
2872.203114	362.690765	-222.455643	-632.607666
2872.206447	364.210358	-222.514099	-620.100403
2872.209781	365.028595	-223.040100	-609.404907
2872.213113	365.145477	-223.215424	-597.131409
2872.216451	366.372833	-222.923203	-585.676086
2872.219846	366.372833	-222.747864	-573.987000
2872.223129	366.781952	-222.163406	-563.233093
2872.226453	366.372833	-222.280304	-551.777771
2872.231073	366.372833	-221.578964	-528.750305
2872.234006	365.963715	-220.526947	-518.580811
2872.237323	365.729950	-220.117828	-508.528198
2872.240675	364.561035	-219.299591	-498.241821
2872.244047	364.327240	-219.065796	-488.539886
2872.247382	363.392120	-217.896912	-478.311920
2872.250310	362.164764	-217.370911	-469.369812
2872.253543	360.119171	-216.903336	-460.018555
2872.256868	359.476257	-215.266861	-451.310181
2872.260202	358.248901	-214.857742	-442.894073
2872.263110	357.196899	-213.571945	-434.770172
2872.266450	355.735779	-213.162842	-426.880035
2872.269778	354.391541	-211.760132	-419.515900
2872.273111	352.988861	-210.415909	-411.275116
2872.276446	351.703033	-209.597672	-404.670807
2872.279773	350.651031	-208.662552	-396.605347
2872.283129	348.313232	-207.961197	-390.643921
2872.286440	347.378113	-207.376740	-382.870697
2872.289780	346.033844	-206.032501	-376.733917
2872.293107	344.222046	-204.922043	-371.473846
2872.296440	342.760895	-203.402451	-364.401947
2872.299780	340.715332	-202.350433	-358.791199
2872.303105	339.020416	-201.707550	-351.777740
2872.306514	338.435944	-201.064636	-345.933197
2872.309789	336.156555	-199.311279	-340.790009
2872.313109	334.461639	-198.785278	-334.477936
2872.316446	332.591400	-197.674820	-328.750275
2872.319809	331.480957	-196.213684	-323.081085
2872.323103	330.019806	-195.161667	-317.762543
2872.326450	328.032684	-193.992752	-312.327148
2872.329778	326.396210	-193.116074	-307.359283
2872.333101	323.532379	-191.421158	-301.690094
2872.336438	322.889496	-190.719803	-296.254669
2872.339772	320.843903	-189.141785	-291.637482
2872.344471	317.746307	-186.628647	-280.357544
2872.347315	315.291595	-186.044189	-275.097473
2872.350704	314.122681	-184.641495	-271.707611
2872.354028	312.193970	-182.479019	-265.629303
2872.357318	310.499054	-181.719238	-261.596588
2872.360624	308.745697	-180.608765	-257.213196
2872.363565	307.226135	-179.673645	-252.595978
2872.366854	305.531189	-178.446289	-248.037262
2872.370198	304.245422	-177.102051	-244.822754
2872.373529	301.615356	-176.926712	-240.497803
2872.376429	300.621796	-175.465576	-237.224884
2872.379767	299.219116	-174.238220	-233.718140
2872.383097	297.465759	-174.121338	-229.743866
2872.386436	295.361725	-172.251083	-226.470917
2872.389766	293.433044	-171.432846	-223.256439
2872.393131	292.614777	-171.315964	-220.801727
2872.396434	290.919891	-170.322388	-218.639252
2872.399768	290.160095	-169.679489	-216.067657
2872.403098	288.991180	-168.685913	-213.086945
2872.406444	287.296265	-167.809235	-210.982910
2872.409764	286.068909	-167.458557	-208.235962
2872.413098	285.367584	-166.640335	-206.131927
2872.416433	283.088196	-166.523437	-204.495483
2872.419761	282.503723	-165.412979	-202.742096
2872.423097	281.217957	-165.296082	-200.228973
2872.426429	280.691956	-164.536301	-198.709381
2872.429765	279.815247	-164.302521	-197.189789
2872.433094	279.464600	-163.834961	-195.962433
2872.436426	277.302124	-162.899826	-194.910431
2872.439755	277.477448	-162.023148	-193.215515
2872.443095	276.425415	-161.964706	-190.936157
2872.446431	275.782532	-161.555573	-189.942596
2872.449759	274.672058	-160.854233	-188.013885
2872.453095	274.379822	-160.211334	-185.968292
2872.457351	272.217346	-159.509995	-183.279816
2872.460614	272.100464	-159.100876	-182.520020
2872.463933	271.457581	-157.815079	-180.591309
2872.467308	270.347107	-157.522842	-179.013306
2872.470635	269.821106	-157.522842	-177.727493
2872.473516	269.528870	-157.055283	-176.500153
2872.476876	269.002869	-156.470840	-175.272797
2872.480209	268.067749	-156.120163	-173.753204
2872.483536	267.833954	-155.418808	-172.934982
2872.486903	266.314392	-154.775925	-170.304932
2872.489760	266.548157	-154.659042	-169.662048
2872.493090	265.788391	-154.775925	-169.252914
2872.496418	265.203918	-154.133026	-167.850220
2872.499752	265.554565	-153.899246	-167.733337
2872.503087	264.268799	-153.782349	-166.155319
2872.506419	264.268799	-153.081009	-165.629303
2872.509778	263.567444	-152.964111	-164.811066
2872.513085	263.158325	-152.847214	-164.869507
2872.516420	262.866089	-153.256348	-164.343506
2872.519751	262.573853	-152.730331	-163.992844
