time (s)	magX	magY	magZ
4068.400219	211.960205	-60.503567	-75.155899
4068.404778	205.998779	-59.626881	-70.304939
4068.407677	202.959625	-59.626881	-67.674896
4068.410999	201.030914	-58.399532	-66.272209
4068.414351	199.394455	-57.815075	-63.700611
4068.417691	196.179962	-57.581291	-62.239479
4068.420606	194.134369	-57.055286	-60.603008
4068.423931	192.614792	-56.938396	-58.089859
4068.427265	189.400284	-55.769489	-56.804062
4068.430574	187.763824	-55.594151	-54.524693
4068.433910	185.542908	-55.301926	-52.829777
4068.436816	184.432449	-55.360371	-50.433517
4068.440181	181.627075	-54.074574	-49.732174
4068.443484	179.815262	-54.366802	-47.569695
4068.446820	178.587906	-53.665455	-46.459232
4068.450148	176.659210	-53.197891	-45.465660
4068.453494	175.022751	-53.197891	-44.355202
4068.456811	173.503159	-52.964111	-43.536964
4068.460149	172.158920	-52.905666	-41.491379
4068.463478	169.996445	-52.262768	-41.140705
4068.466817	168.535309	-51.561424	-39.621124
4068.470144	167.249512	-50.976971	-39.562683
4068.473476	165.671478	-50.743187	-37.984657
4068.476816	163.392120	-50.860077	-36.815750
4068.480143	161.346527	-50.567852	-35.880623
4068.483497	160.820526	-50.334072	-34.653271
4068.486814	160.002274	-49.866508	-33.192139
4068.490184	158.190475	-49.457390	-32.373901
4068.493477	156.437119	-49.282055	-31.204996
4068.496816	154.742203	-48.872936	-30.971214
4068.500144	153.573303	-48.522266	-29.276299
4068.503480	152.755066	-48.230038	-29.100964
4068.506813	150.884796	-47.937813	-26.880039
4068.510139	150.592575	-48.522266	-26.763149
4068.513480	148.722321	-47.587139	-26.529367
4068.518096	146.852081	-47.470249	-24.074663
4068.521022	146.033844	-47.294914	-23.782436
4068.524336	144.864929	-47.236469	-23.197983
4068.527767	144.163605	-46.827351	-23.373320
4068.531098	143.228470	-46.652016	-22.730421
4068.533954	142.118011	-46.944241	-21.503069
4068.537227	141.007538	-47.061131	-21.327732
4068.540580	141.007538	-46.359787	-21.210842
4068.543893	139.780182	-46.593571	-20.801720
4068.547226	139.838638	-45.950672	-20.392605
4068.550142	138.961960	-46.301342	-20.801720
4068.553469	138.435944	-46.184452	-19.749706
4068.556807	137.617722	-46.535126	-19.574368
4068.560139	137.267044	-46.535126	-19.457478
4068.563471	137.091705	-46.242897	-19.632816
4068.566805	136.507248	-46.885796	-19.983486
4068.570145	136.974808	-46.476677	-18.989914
4068.573470	136.390366	-46.768906	-18.989914
4068.576800	135.221466	-46.476677	-18.756134
4068.580136	135.338348	-46.768906	-19.048363
4068.583465	134.987671	-46.710461	-18.580799
4068.586821	134.929230	-46.535126	-18.522354
4068.590146	134.753891	-46.710461	-18.405464
4068.593469	134.052551	-47.002686	-18.522354
4068.596804	133.994110	-46.827351	-18.288570
4068.600131	134.227875	-47.645584	-18.756134
4068.603468	133.818771	-47.353359	-18.580799
4068.606834	134.461670	-47.236469	-18.639244
4068.610138	133.701874	-47.119576	-18.171680
4068.613477	134.110992	-47.587139	-17.704117
4068.616799	134.695450	-47.061131	-17.645672
4068.620130	133.877197	-47.353359	-18.989914
4068.623460	134.286331	-47.704029	-18.171680
4068.626792	133.643433	-47.645584	-18.054790
4068.630129	134.169434	-47.528694	-17.762566
4068.634366	134.286331	-48.113148	-17.236557
4068.637714	134.286331	-48.814491	-17.411892
4068.641130	134.403214	-48.756046	-18.405464
4068.644436	133.935654	-48.756046	-18.230125
4068.647647	134.461670	-49.282055	-18.113235
4068.650601	134.403214	-49.106720	-18.873024
4068.653888	135.221466	-49.574280	-19.282143
4068.657216	135.455231	-50.100288	-19.223698
4068.660551	135.864349	-50.567852	-18.288570
4068.663878	136.390366	-50.743187	-19.515923
4068.666793	136.565704	-51.035416	-19.515923
4068.670124	137.267044	-51.619869	-20.451050
4068.673462	137.909943	-51.970539	-20.918612
4068.676795	137.559265	-52.028984	-21.035503
4068.680128	138.435944	-52.964111	-20.801720
4068.683452	138.728180	-53.022556	-21.386177
4068.686792	139.838638	-53.197891	-22.321302
4068.690138	140.890656	-54.308353	-23.022648
4068.693486	141.942657	-54.600582	-23.314873
4068.696786	142.176453	-55.418819	-24.191553
4068.700131	143.345352	-55.418819	-25.535797
4068.703455	143.812927	-56.646168	-25.711132
4068.706785	145.683167	-56.529278	-26.237141
4068.710117	145.683167	-56.821507	-27.230711
4068.713458	147.027420	-57.522850	-27.756720
4068.716795	148.254761	-57.698181	-28.574955
4068.720125	149.657455	-59.159321	-29.042519
4068.723455	150.592575	-59.860664	-29.977644
4068.726785	152.112152	-60.445118	-31.029659
4068.730117	153.923965	-60.737347	-31.847895
4068.733453	154.917542	-61.730915	-32.899910
4068.736809	155.852661	-62.549149	-33.484367
4068.740120	157.138474	-63.250492	-35.003944
4068.743457	158.307373	-64.127174	-36.231293
4068.747749	161.171188	-65.471420	-37.575539
4068.751045	162.106308	-66.464989	-39.153564
4068.754402	163.333664	-67.517006	-40.030243
4068.757639	165.320816	-67.867683	-41.199150
4068.760958	166.781952	-69.445709	-43.420074
4068.763874	168.243073	-69.562599	-43.946083
4068.767214	169.236649	-70.906837	-45.173435
4068.770540	170.580887	-71.783524	-46.108559
4068.773883	171.925140	-73.653770	-48.563267
4068.777250	174.029175	-73.945999	-49.615280
4068.780159	176.074753	-74.998009	-50.316628
4068.783453	177.360565	-75.757805	-52.946667
4068.786781	178.763245	-77.744942	-54.290909
4068.790117	180.925720	-78.972298	-56.161163
4068.793454	183.029755	-79.089188	-58.148304
4068.796783	184.900009	-80.024315	-60.135445
4068.800110	186.711807	-82.186790	-62.765488
4068.803446	188.757401	-83.881706	-64.051285
4068.806777	190.686096	-84.583054	-67.148888
4068.810117	192.731674	-85.635071	-69.778931
4068.813446	194.952606	-87.505318	-71.240067
4068.816775	197.582657	-88.966454	-74.103882
4068.820107	199.745132	-90.310692	-76.149475
4068.823443	202.082947	-92.064056	-79.714638
4068.826782	204.420761	-93.408302	-82.695351
4068.830128	206.583221	-95.044769	-86.494301
4068.833446	209.330170	-96.856575	-88.832115
4068.836773	212.427765	-98.668381	-92.455727
4068.840105	215.233154	-100.071068	-95.611771
4068.843439	217.454071	-101.473755	-99.293831
4068.846774	219.908768	-103.168678	-102.975891
4068.850109	222.772598	-105.564934	-106.833282
4068.853442	226.279312	-107.552078	-110.573792
4068.858123	231.948502	-111.117249	-119.691261
4068.860991	234.929214	-112.461487	-123.314873
4068.864289	237.676147	-114.916199	-128.984070
4068.867679	240.890656	-117.254013	-133.016800
4068.870971	243.696030	-119.299591	-137.107971
4068.873892	247.436539	-121.169846	-142.952515
4068.877224	250.241913	-123.040092	-148.855499
4068.880548	253.573288	-125.436356	-153.940247
4068.883879	255.911102	-127.423492	-159.901672
4068.887196	259.710083	-130.053528	-165.512421
4068.890099	262.340088	-131.923782	-170.597168
4068.893441	265.087036	-133.910934	-177.552155
4068.896770	267.132629	-136.365631	-183.688934
4068.900099	270.288666	-138.937225	-189.591888
4068.903435	273.444702	-141.099701	-196.780670
4068.906771	276.834534	-143.203735	-202.859009
4068.910105	278.997009	-146.418243	-210.749115
4068.913438	282.386841	-149.515839	-217.704132
4068.916777	284.900024	-151.678314	-225.535797
4068.920098	288.231384	-154.717468	-233.309021
4068.923429	290.276978	-157.639740	-241.549835
4068.926768	293.257690	-160.152893	-250.082855
4068.930102	296.121521	-162.899826	-258.206757
4068.933431	298.634674	-165.588303	-267.674896
4068.936768	301.030945	-169.036591	-276.675476
4068.940101	303.134949	-171.432846	-287.020294
4068.943427	305.531189	-174.647339	-296.137787
4068.946765	308.511932	-177.335831	-307.183960
4068.950111	310.089966	-180.550323	-317.937897
4068.953475	311.609528	-183.647919	-328.925629
4068.956763	313.129089	-187.446869	-341.140686
4068.960121	315.992950	-190.252243	-353.355774
4068.963427	317.395630	-193.642075	-365.453979
4068.966767	318.038513	-196.096786	-378.779480
4068.971400	321.077667	-201.473770	-405.079926
4068.974317	322.012787	-205.038925	-418.639252
4068.977651	323.123291	-207.142960	-432.724548
4068.981017	322.947906	-209.831436	-447.861908
4068.984366	321.954346	-213.455048	-461.538147
4068.987208	321.779022	-215.208420	-477.610596
4068.990522	321.194580	-216.844879	-492.864868
4068.993861	320.200989	-219.416489	-507.885284
4068.997191	319.382782	-222.104965	-522.788879
4069.000520	316.752747	-224.559677	-538.101562
4069.003446	314.590240	-226.429932	-554.349365
4069.006760	312.135529	-229.059967	-570.830933
4069.010087	308.745697	-229.469070	-586.552734
4069.013425	305.414337	-232.274445	-602.625244
4069.016756	301.440033	-233.034241	-619.165283
4069.020087	297.056641	-235.138290	-633.250610
4069.023420	292.614777	-236.131851	-650.316650
4069.026759	287.880707	-237.593002	-666.564453
4069.030093	281.334839	-238.761887	-681.818726
4069.033419	274.905853	-239.346359	-697.014465
4069.036757	268.184631	-240.865936	-711.801147
4069.040091	261.288086	-241.333496	-726.470947
4069.043474	253.047287	-241.275040	-743.303223
4069.046774	244.046692	-241.801056	-755.927429
4069.050091	234.812347	-241.333496	-771.006287
4069.053420	225.051956	-241.801056	-784.799438
4069.056753	214.648682	-241.450378	-796.546936
4069.060085	204.362305	-240.982803	-811.567383
4069.063420	192.907028	-240.281479	-823.314880
4069.066756	180.750381	-239.697021	-835.763733
4069.070084	169.002869	-238.586563	-847.160645
4069.073423	156.378677	-235.898087	-858.732727
4069.076757	143.111572	-234.027832	-870.772522
4069.080084	129.084686	-233.501801	-878.311951
4069.084306	100.271133	-226.839035	-897.014465
4069.087677	85.484451	-224.209015	-904.378662
4069.091015	69.937996	-220.059387	-911.099854
4069.094360	53.923965	-215.851318	-916.593689
4069.097602	38.377502	-211.877029	-923.314880
4069.100510	21.662132	-207.259857	-926.120239
4069.103850	5.355877	-202.467331	-929.217834
4069.107192	-10.950375	-198.259262	-931.205017
4069.110504	-27.490406	-191.888718	-932.140076
4069.113833	-44.322670	-186.803970	-931.730957
4069.116741	-60.570480	-180.374985	-931.789429
4069.120082	-77.052071	-175.114914	-929.568542
4069.123415	-93.942772	-168.276794	-927.523010
4069.126766	-109.898346	-161.964706	-923.782471
4069.130080	-125.094147	-154.483688	-921.035522
4069.133417	-140.757507	-148.522278	-913.729919
4069.136744	-155.719513	-142.034836	-907.534668
4069.140074	-170.389297	-135.079834	-900.112122
4069.143416	-185.351318	-128.007950	-892.105042
4069.146743	-199.495087	-121.052948	-884.740967
4069.150073	-212.645279	-113.922623	-875.039062
4069.153410	-225.970825	-107.668961	-864.460388
4069.156742	-238.770355	-100.655525	-855.226074
4069.160076	-250.284088	-94.694099	-845.290344
4069.163407	-262.323853	-87.329987	-832.315491
4069.166744	-273.837585	-80.550323	-820.217285
4069.170097	-284.766846	-74.004440	-807.476257
4069.173412	-294.176575	-68.276802	-795.962463
4069.176733	-304.229156	-61.672470	-781.468018
4069.180076	-314.106415	-55.827930	-768.434692
4069.183411	-322.230316	-50.275627	-755.635132
4069.186743	-330.003571	-45.132435	-741.549866
4069.190073	-337.133911	-39.755463	-725.944946
4069.193406	-346.076019	-33.910927	-713.028503
4069.197653	-358.057312	-23.273872	-683.338257
4069.200965	-363.668060	-18.948915	-669.603638
4069.204242	-368.460602	-13.864170	-653.881836
4069.207585	-372.317993	-9.597660	-637.575562
4069.210953	-376.701385	-4.396023	-623.197998
4069.213856	-381.318542	0.221159	-607.359314
4069.217167	-384.182404	4.955234	-592.105103
4069.220523	-385.818848	9.163300	-577.259949
4069.223861	-388.974945	13.020693	-562.122620
4069.227192	-390.026947	16.994976	-547.394348
4069.230104	-392.072510	21.670605	-533.133667
4069.233400	-393.416779	24.943544	-517.820984
4069.236741	-393.475220	28.625603	-503.618774
4069.240070	-394.059631	32.424549	-489.825684
4069.243423	-393.533661	36.048161	-475.506561
4069.246731	-392.014069	39.028877	-462.064148
4069.250069	-392.364777	42.184925	-448.797058
4069.253400	-390.786743	44.990299	-435.003937
4069.256735	-389.500946	47.503448	-422.145966
4069.260066	-386.929352	50.834835	-410.807556
4069.263406	-384.708405	52.763535	-398.008026
4069.266730	-383.656403	55.335129	-385.968292
4069.270067	-380.383423	57.322269	-373.987000
4069.273416	-378.922302	59.543194	-362.765503
4069.276735	-376.701385	61.238110	-351.660858
4069.280063	-373.428467	62.465458	-341.842041
4069.283397	-371.207550	64.452599	-331.204987
4069.286732	-366.531921	64.978607	-320.217255
4069.290065	-364.486328	66.731972	-310.749115
4069.293394	-360.044464	67.842430	-301.047211
4069.296743	-357.414429	68.368439	-292.514191
4069.300084	-354.083038	69.595795	-284.331818
4069.303399	-350.576324	70.180244	-275.272797
4069.306728	-348.063171	70.998482	-266.973572
4069.310064	-343.972015	70.823143	-258.265198
4069.314688	-336.666321	71.992050	-242.952515
4069.317670	-331.114014	71.875160	-236.289734
4069.320934	-329.068420	72.751839	-228.458069
4069.324266	-324.509705	73.219406	-221.678406
4069.327653	-321.236755	72.985626	-215.366302
4069.330534	-317.204041	73.219406	-208.294434
4069.333899	-313.697296	72.634949	-202.975891
4069.337155	-309.372345	72.927177	-196.254669
4069.340484	-306.917664	73.336296	-190.001007
4069.343840	-301.891327	72.810287	-184.039612
4069.346725	-299.261292	71.816719	-178.136627
4069.350061	-295.520782	72.751839	-172.701202
4069.353392	-291.488068	72.342720	-167.207336
4069.356720	-288.156677	72.810287	-161.538132
4069.360056	-284.299286	72.284279	-157.622299
4069.363390	-281.903046	72.050499	-153.180450
4069.366726	-278.337860	71.758270	-147.160583
4069.370053	-274.597382	71.173813	-142.134277
4069.373395	-270.097076	71.290703	-137.692429
4069.376724	-266.707245	71.466042	-134.185699
4069.380056	-263.901855	70.530922	-130.503647
4069.383387	-259.635376	70.881592	-126.646255
4069.386722	-257.239105	70.355583	-123.022644
4069.390051	-253.557037	70.764702	-118.697693
4069.393396	-251.102356	70.355583	-116.009201
4069.396718	-247.654083	70.881592	-110.924461
4069.400049	-244.088898	70.063354	-108.235977
4069.403418	-241.400391	69.712685	-105.138367
4069.406719	-238.711914	69.303566	-102.040764
4069.410047	-235.497406	68.894440	-99.235382
4069.413385	-232.341370	68.835999	-96.605347
4069.416750	-230.062012	68.777550	-93.683075
4069.420050	-227.198181	68.193100	-90.351692
4069.423380	-226.029266	67.842430	-88.189217
4069.426721	-222.171890	67.725540	-87.020309
4069.430914	-217.788467	67.959320	-81.468002
4069.434260	-214.807755	66.965752	-79.714638
4069.437697	-212.762177	66.965752	-77.727493
4069.440981	-210.950394	66.965752	-75.798798
4069.444223	-208.904785	66.848862	-73.928551
4069.447175	-206.800766	66.089066	-71.649178
4069.450478	-205.456512	65.504616	-70.714050
4069.453810	-202.534241	65.387726	-68.025566
4069.457138	-200.605545	64.861717	-67.850235
4069.460064	-199.962646	64.861717	-65.395531
4069.463374	-197.040375	64.452599	-63.408386
4069.466710	-194.936356	63.692814	-63.525276
4069.470045	-193.533676	63.342144	-61.479691
4069.473380	-191.371185	63.342144	-61.070572
4069.476708	-190.611404	63.283695	-59.200321
4069.480046	-188.624252	62.874584	-57.505405
4069.483381	-187.046234	62.407017	-56.044270
4069.486708	-186.111099	61.647228	-55.167591
4069.490072	-185.000641	61.647228	-53.881794
4069.493380	-182.604370	61.647228	-51.777760
4069.496707	-181.786148	61.764118	-50.959526
4069.500038	-179.857452	61.238110	-50.082844
4069.503377	-179.097672	60.887440	-48.504822
4069.506708	-177.987213	61.121220	-47.978813
4069.510046	-176.058502	60.828991	-46.868351
4069.513371	-175.590927	60.712101	-46.926796
4069.516706	-173.954468	60.945881	-45.407215
4069.520039	-172.727112	60.712101	-44.179863
4069.523382	-171.616653	60.653660	-43.829193
4069.526736	-169.512619	60.010757	-42.952511
4069.530043	-169.395737	60.361431	-41.432934
4069.533379	-167.934601	60.770550	-40.030243
4069.536705	-166.882568	60.419880	-39.971798
4069.540041	-165.538330	60.244537	-40.030243
4069.544351	-164.778549	60.595211	-39.562683
4069.547639	-163.200516	60.186096	-38.452221
4069.550935	-162.090057	60.595211	-37.692429
4069.554220	-160.979599	59.952312	-36.698860
4069.557553	-160.512024	60.712101	-37.049530
4069.560460	-160.453598	60.244537	-35.939068
4069.563784	-159.752243	60.419880	-35.880623
4069.567128	-158.934006	59.543194	-35.296169
4069.570548	-158.875565	59.835419	-35.354614
4069.573836	-158.057327	59.601635	-35.646843
4069.576705	-157.648224	60.010757	-35.179279
4069.580035	-157.472870	60.127647	-34.828606
4069.583398	-157.063751	60.244537	-34.887054
4069.586708	-157.122208	60.127647	-34.770164
4069.590039	-156.888428	60.010757	-35.296169
4069.593367	-156.479309	60.244537	-33.601257
4069.596700	-156.654648	60.010757	-33.718147
4069.600035	-155.953308	60.361431	-34.302597
4069.603368	-156.011749	60.536770	-34.185707
4069.606698	-156.713089	60.244537	-34.010372
4069.610034	-156.011749	61.004330	-34.536381
4069.613377	-155.953308	60.945881	-34.828606
4069.616699	-155.544189	60.945881	-34.185707
4069.620036	-155.894852	61.004330	-34.536381
4069.623366	-155.661072	60.945881	-34.477936
4069.626697	-155.544189	61.355000	-34.185707
4069.630031	-155.777969	61.355000	-35.120834
4069.633363	-155.953308	60.887440	-34.945496
4069.636700	-156.303970	62.290127	-34.945496
4069.640025	-156.596191	61.939457	-35.588394
4069.643382	-156.479309	61.881008	-34.770164
4069.646693	-156.946869	62.816135	-35.588394
4069.650026	-156.420868	63.283695	-34.828606
4069.653362	-156.829971	63.049915	-35.997513
4069.657640	-157.063751	63.868145	-35.939068
4069.660876	-157.297546	64.043488	-35.763733
4069.664204	-157.765106	64.452599	-35.588394
4069.667557	-158.115784	65.153946	-36.406631
4069.670895	-157.882004	65.563065	-37.224869
4069.673833	-158.934006	65.679955	-36.991085
4069.677143	-160.044464	66.848862	-38.335327
4069.680493	-159.752243	66.848862	-38.802891
4069.683827	-160.044464	67.433311	-38.159992
4069.687201	-160.453598	68.134659	-39.153564
4069.690026	-160.862701	68.309990	-40.088688
4069.693358	-161.973160	69.011337	-40.439362
4069.696692	-162.616058	69.712685	-41.140705
4069.700032	-163.551193	69.362015	-41.491379
4069.703353	-163.901871	70.823143	-42.368057
4069.706688	-165.421448	70.881592	-43.361629
4069.710025	-166.005905	72.050499	-43.536964
4069.713356	-167.467041	71.992050	-44.764317
4069.716686	-167.876144	72.576500	-45.640999
4069.720025	-169.220383	73.511627	-46.459232
4069.723357	-170.213959	74.096085	-48.329483
4069.726690	-171.908875	74.154526	-48.563267
4069.730041	-172.610229	75.148094	-49.498390
4069.733351	-174.071350	76.433891	-50.784187
4069.736688	-174.831146	76.667679	-52.537548
4069.740019	-176.993622	77.544357	-53.238895
4069.743351	-177.168961	78.128815	-55.635155
4069.746689	-179.682098	78.596375	-56.161163
4069.750014	-180.675690	79.589951	-57.797630
4069.753347	-182.370605	80.349731	-59.550991
4069.756679	-183.773285	81.226418	-60.193890
4069.760086	-185.000641	82.161545	-61.713470
4069.763354	-185.994202	83.505783	-62.590149
4069.766681	-188.624252	84.265579	-64.811073
4069.771285	-191.546524	86.077377	-68.317795
4069.774218	-192.306320	87.304733	-70.304939
4069.777547	-194.351898	88.415199	-71.882965
4069.780885	-196.105255	89.408768	-73.402542
4069.784277	-198.092407	90.460777	-75.155899
4069.787122	-199.728851	91.921921	-76.207916
4069.790467	-201.190002	92.915482	-78.487289
4069.793775	-202.417358	94.551956	-80.825104
4069.797145	-204.930511	95.019516	-82.520020
4069.800439	-206.450089	97.123550	-84.624046
4069.803360	-208.612549	98.292458	-86.903419
4069.806681	-210.073700	99.695145	-89.591904
4069.810016	-212.995972	100.922501	-90.994591
4069.813342	-214.340195	102.734299	-93.799973
4069.816679	-217.145569	103.786324	-96.137787
4069.820009	-218.314499	105.539688	-99.118500
4069.823342	-220.418518	107.117706	-102.040764
4069.826678	-222.756332	108.169724	-104.904587
4069.830011	-225.678604	110.098419	-108.411308
4069.833341	-228.074875	112.085564	-111.567352
4069.836681	-229.535995	113.955818	-115.307861
4069.840024	-232.750488	115.183174	-119.106804
4069.843334	-235.205200	117.345642	-121.853737
4069.846674	-238.302795	118.689896	-125.886475
4069.850033	-239.763947	120.501694	-129.919189
4069.853341	-242.510864	122.664177	-134.244141
